Sept. 21, 2026   17:21:25
Cyclic Voltammetry
File: d:\desktop\sample\ss310 1 cm2\ss310_sheet cv 20 mv.bin
Data Source:  Experiment
Instrument Model:  CHI660D
Header: 
Note: 

Init E (V) = 0.24
High E (V) = 0.34
Low E (V) = 0.24
Init P/N = P
Scan Rate (V/s) = 0.02
Segment = 10
Sample Interval (V) = 0.001
Quiet Time (sec) = 2
Sensitivity (A/V) = 1e-5

Results:

Channel 1:
Segment 1:

Segment 2:

Segment 3:

Segment 4:

Segment 5:

Segment 6:

Segment 7:

Segment 8:

Segment 9:

Segment 10:

Potential/V, Current/A

0.240, 3.039e-6
0.241, 3.614e-6
0.242, 3.778e-6
0.243, 3.880e-6
0.244, 4.001e-6
0.245, 4.083e-6
0.246, 4.169e-6
0.247, 4.254e-6
0.248, 4.327e-6
0.249, 4.409e-6
0.250, 4.471e-6
0.251, 4.544e-6
0.252, 4.624e-6
0.253, 4.685e-6
0.254, 4.760e-6
0.255, 4.827e-6
0.256, 4.914e-6
0.257, 4.977e-6
0.258, 5.037e-6
0.259, 5.116e-6
0.260, 5.196e-6
0.261, 5.253e-6
0.262, 5.327e-6
0.263, 5.411e-6
0.264, 5.475e-6
0.265, 5.556e-6
0.266, 5.623e-6
0.267, 5.700e-6
0.268, 5.783e-6
0.269, 5.841e-6
0.270, 5.926e-6
0.271, 6.012e-6
0.272, 6.084e-6
0.273, 6.168e-6
0.274, 6.249e-6
0.275, 6.336e-6
0.276, 6.409e-6
0.277, 6.501e-6
0.278, 6.561e-6
0.279, 6.679e-6
0.280, 6.749e-6
0.281, 6.842e-6
0.282, 6.930e-6
0.283, 7.012e-6
0.284, 7.111e-6
0.285, 7.191e-6
0.286, 7.275e-6
0.287, 7.391e-6
0.288, 7.466e-6
0.289, 7.562e-6
0.290, 7.660e-6
0.291, 7.746e-6
0.292, 7.856e-6
0.293, 7.929e-6
0.294, 8.022e-6
0.295, 8.129e-6
0.296, 8.230e-6
0.297, 8.333e-6
0.298, 8.444e-6
0.299, 8.537e-6
0.300, 8.635e-6
0.301, 8.738e-6
0.302, 8.843e-6
0.303, 8.968e-6
0.304, 9.046e-6
0.305, 9.172e-6
0.306, 9.279e-6
0.307, 9.459e-6
0.308, 9.533e-6
0.309, 9.613e-6
0.310, 9.730e-6
0.311, 9.847e-6
0.312, 9.943e-6
0.313, 1.008e-5
0.314, 1.018e-5
0.315, 1.031e-5
0.316, 1.042e-5
0.317, 1.053e-5
0.318, 1.065e-5
0.319, 1.079e-5
0.320, 1.086e-5
0.321, 1.101e-5
0.322, 1.114e-5
0.323, 1.126e-5
0.324, 1.141e-5
0.325, 1.153e-5
0.326, 1.166e-5
0.327, 1.180e-5
0.328, 1.191e-5
0.329, 1.206e-5
0.330, 1.219e-5
0.331, 1.233e-5
0.332, 1.248e-5
0.333, 1.265e-5
0.334, 1.277e-5
0.335, 1.294e-5
0.336, 1.303e-5
0.337, 1.322e-5
0.338, 1.337e-5
0.339, 1.350e-5
0.340, 1.103e-5
0.339, 7.802e-6
0.338, 6.564e-6
0.337, 5.699e-6
0.336, 5.034e-6
0.335, 4.489e-6
0.334, 4.002e-6
0.333, 3.576e-6
0.332, 3.210e-6
0.331, 2.897e-6
0.330, 2.624e-6
0.329, 2.333e-6
0.328, 2.117e-6
0.327, 1.881e-6
0.326, 1.671e-6
0.325, 1.483e-6
0.324, 1.318e-6
0.323, 1.182e-6
0.322, 1.025e-6
0.321, 8.680e-7
0.320, 7.849e-7
0.319, 6.375e-7
0.318, 5.315e-7
0.317, 4.313e-7
0.316, 3.374e-7
0.315, 2.414e-7
0.314, 1.471e-7
0.313, 7.238e-8
0.312, 1.239e-8
0.311, -6.914e-8
0.310, -1.290e-7
0.309, -1.921e-7
0.308, -2.671e-7
0.307, -3.812e-7
0.306, -3.602e-7
0.305, -4.120e-7
0.304, -4.393e-7
0.303, -4.920e-7
0.302, -5.300e-7
0.301, -5.591e-7
0.300, -5.911e-7
0.299, -6.256e-7
0.298, -6.492e-7
0.297, -6.891e-7
0.296, -6.942e-7
0.295, -7.200e-7
0.294, -7.528e-7
0.293, -7.710e-7
0.292, -7.886e-7
0.291, -8.032e-7
0.290, -8.320e-7
0.289, -8.540e-7
0.288, -8.572e-7
0.287, -8.775e-7
0.286, -8.985e-7
0.285, -9.019e-7
0.284, -9.317e-7
0.283, -9.212e-7
0.282, -9.554e-7
0.281, -9.611e-7
0.280, -9.480e-7
0.279, -9.688e-7
0.278, -9.784e-7
0.277, -9.853e-7
0.276, -9.881e-7
0.275, -9.996e-7
0.274, -1.004e-6
0.273, -1.018e-6
0.272, -1.006e-6
0.271, -1.023e-6
0.270, -1.025e-6
0.269, -1.017e-6
0.268, -1.034e-6
0.267, -1.037e-6
0.266, -1.038e-6
0.265, -1.054e-6
0.264, -1.043e-6
0.263, -1.063e-6
0.262, -1.063e-6
0.261, -1.062e-6
0.260, -1.065e-6
0.259, -1.068e-6
0.258, -1.074e-6
0.257, -1.081e-6
0.256, -1.081e-6
0.255, -1.087e-6
0.254, -1.087e-6
0.253, -1.088e-6
0.252, -1.099e-6
0.251, -1.096e-6
0.250, -1.099e-6
0.249, -1.105e-6
0.248, -1.110e-6
0.247, -1.110e-6
0.246, -1.121e-6
0.245, -1.112e-6
0.244, -1.116e-6
0.243, -1.108e-6
0.242, -1.122e-6
0.241, -1.137e-6
0.240, 1.482e-7
0.241, 1.321e-6
0.242, 1.629e-6
0.243, 1.840e-6
0.244, 2.027e-6
0.245, 2.169e-6
0.246, 2.295e-6
0.247, 2.427e-6
0.248, 2.533e-6
0.249, 2.651e-6
0.250, 2.744e-6
0.251, 2.840e-6
0.252, 2.934e-6
0.253, 3.018e-6
0.254, 3.106e-6
0.255, 3.211e-6
0.256, 3.288e-6
0.257, 3.382e-6
0.258, 3.448e-6
0.259, 3.544e-6
0.260, 3.625e-6
0.261, 3.705e-6
0.262, 3.779e-6
0.263, 3.875e-6
0.264, 3.948e-6
0.265, 4.042e-6
0.266, 4.111e-6
0.267, 4.192e-6
0.268, 4.293e-6
0.269, 4.350e-6
0.270, 4.435e-6
0.271, 4.531e-6
0.272, 4.605e-6
0.273, 4.699e-6
0.274, 4.790e-6
0.275, 4.867e-6
0.276, 4.966e-6
0.277, 5.049e-6
0.278, 5.134e-6
0.279, 5.232e-6
0.280, 5.306e-6
0.281, 5.418e-6
0.282, 5.513e-6
0.283, 5.594e-6
0.284, 5.688e-6
0.285, 5.768e-6
0.286, 5.872e-6
0.287, 5.981e-6
0.288, 6.062e-6
0.289, 6.166e-6
0.290, 6.259e-6
0.291, 6.349e-6
0.292, 6.462e-6
0.293, 6.557e-6
0.294, 6.638e-6
0.295, 6.767e-6
0.296, 6.862e-6
0.297, 6.966e-6
0.298, 7.088e-6
0.299, 7.178e-6
0.300, 7.295e-6
0.301, 7.402e-6
0.302, 7.500e-6
0.303, 7.626e-6
0.304, 7.718e-6
0.305, 7.840e-6
0.306, 7.946e-6
0.307, 8.150e-6
0.308, 8.221e-6
0.309, 8.327e-6
0.310, 8.425e-6
0.311, 8.554e-6
0.312, 8.678e-6
0.313, 8.803e-6
0.314, 8.910e-6
0.315, 9.032e-6
0.316, 9.174e-6
0.317, 9.279e-6
0.318, 9.395e-6
0.319, 9.549e-6
0.320, 9.636e-6
0.321, 9.797e-6
0.322, 9.926e-6
0.323, 1.006e-5
0.324, 1.021e-5
0.325, 1.033e-5
0.326, 1.047e-5
0.327, 1.064e-5
0.328, 1.075e-5
0.329, 1.089e-5
0.330, 1.105e-5
0.331, 1.120e-5
0.332, 1.133e-5
0.333, 1.150e-5
0.334, 1.165e-5
0.335, 1.181e-5
0.336, 1.194e-5
0.337, 1.211e-5
0.338, 1.225e-5
0.339, 1.242e-5
0.340, 9.986e-6
0.339, 6.787e-6
0.338, 5.610e-6
0.337, 4.754e-6
0.336, 4.149e-6
0.335, 3.601e-6
0.334, 3.170e-6
0.333, 2.740e-6
0.332, 2.409e-6
0.331, 2.112e-6
0.330, 1.864e-6
0.329, 1.582e-6
0.328, 1.390e-6
0.327, 1.177e-6
0.326, 9.890e-7
0.325, 8.301e-7
0.324, 6.578e-7
0.323, 5.233e-7
0.322, 3.917e-7
0.321, 2.489e-7
0.320, 1.862e-7
0.319, 5.294e-8
0.318, -4.337e-8
0.317, -1.316e-7
0.316, -2.291e-7
0.315, -3.010e-7
0.314, -3.654e-7
0.313, -4.580e-7
0.312, -4.958e-7
0.311, -5.591e-7
0.310, -6.242e-7
0.309, -6.734e-7
0.308, -7.407e-7
0.307, -8.474e-7
0.306, -8.184e-7
0.305, -8.563e-7
0.304, -8.777e-7
0.303, -9.291e-7
0.302, -9.495e-7
0.301, -9.787e-7
0.300, -1.017e-6
0.299, -1.025e-6
0.298, -1.045e-6
0.297, -1.086e-6
0.296, -1.090e-6
0.295, -1.104e-6
0.294, -1.115e-6
0.293, -1.134e-6
0.292, -1.162e-6
0.291, -1.165e-6
0.290, -1.174e-6
0.289, -1.203e-6
0.288, -1.208e-6
0.287, -1.215e-6
0.286, -1.227e-6
0.285, -1.217e-6
0.284, -1.240e-6
0.283, -1.245e-6
0.282, -1.264e-6
0.281, -1.268e-6
0.280, -1.259e-6
0.279, -1.264e-6
0.278, -1.283e-6
0.277, -1.276e-6
0.276, -1.277e-6
0.275, -1.286e-6
0.274, -1.283e-6
0.273, -1.293e-6
0.272, -1.286e-6
0.271, -1.282e-6
0.270, -1.305e-6
0.269, -1.272e-6
0.268, -1.295e-6
0.267, -1.296e-6
0.266, -1.296e-6
0.265, -1.305e-6
0.264, -1.296e-6
0.263, -1.309e-6
0.262, -1.299e-6
0.261, -1.307e-6
0.260, -1.315e-6
0.259, -1.295e-6
0.258, -1.304e-6
0.257, -1.306e-6
0.256, -1.310e-6
0.255, -1.307e-6
0.254, -1.313e-6
0.253, -1.297e-6
0.252, -1.316e-6
0.251, -1.309e-6
0.250, -1.310e-6
0.249, -1.320e-6
0.248, -1.303e-6
0.247, -1.316e-6
0.246, -1.315e-6
0.245, -1.311e-6
0.244, -1.326e-6
0.243, -1.307e-6
0.242, -1.313e-6
0.241, -1.329e-6
0.240, -4.048e-8
0.241, 1.134e-6
0.242, 1.445e-6
0.243, 1.650e-6
0.244, 1.834e-6
0.245, 1.983e-6
0.246, 2.107e-6
0.247, 2.244e-6
0.248, 2.340e-6
0.249, 2.452e-6
0.250, 2.549e-6
0.251, 2.644e-6
0.252, 2.745e-6
0.253, 2.824e-6
0.254, 2.905e-6
0.255, 3.013e-6
0.256, 3.090e-6
0.257, 3.168e-6
0.258, 3.253e-6
0.259, 3.327e-6
0.260, 3.419e-6
0.261, 3.499e-6
0.262, 3.570e-6
0.263, 3.657e-6
0.264, 3.728e-6
0.265, 3.818e-6
0.266, 3.897e-6
0.267, 3.978e-6
0.268, 4.057e-6
0.269, 4.129e-6
0.270, 4.213e-6
0.271, 4.309e-6
0.272, 4.377e-6
0.273, 4.481e-6
0.274, 4.550e-6
0.275, 4.635e-6
0.276, 4.722e-6
0.277, 4.804e-6
0.278, 4.891e-6
0.279, 4.989e-6
0.280, 5.064e-6
0.281, 5.177e-6
0.282, 5.260e-6
0.283, 5.348e-6
0.284, 5.437e-6
0.285, 5.529e-6
0.286, 5.615e-6
0.287, 5.720e-6
0.288, 5.803e-6
0.289, 5.909e-6
0.290, 5.994e-6
0.291, 6.093e-6
0.292, 6.198e-6
0.293, 6.288e-6
0.294, 6.382e-6
0.295, 6.490e-6
0.296, 6.593e-6
0.297, 6.690e-6
0.298, 6.806e-6
0.299, 6.902e-6
0.300, 7.022e-6
0.301, 7.117e-6
0.302, 7.226e-6
0.303, 7.347e-6
0.304, 7.437e-6
0.305, 7.562e-6
0.306, 7.664e-6
0.307, 7.877e-6
0.308, 7.938e-6
0.309, 8.037e-6
0.310, 8.146e-6
0.311, 8.264e-6
0.312, 8.370e-6
0.313, 8.520e-6
0.314, 8.627e-6
0.315, 8.750e-6
0.316, 8.869e-6
0.317, 8.987e-6
0.318, 9.127e-6
0.319, 9.257e-6
0.320, 9.343e-6
0.321, 9.513e-6
0.322, 9.632e-6
0.323, 9.767e-6
0.324, 9.915e-6
0.325, 1.003e-5
0.326, 1.017e-5
0.327, 1.032e-5
0.328, 1.044e-5
0.329, 1.062e-5
0.330, 1.074e-5
0.331, 1.088e-5
0.332, 1.104e-5
0.333, 1.122e-5
0.334, 1.135e-5
0.335, 1.151e-5
0.336, 1.164e-5
0.337, 1.179e-5
0.338, 1.198e-5
0.339, 1.212e-5
0.340, 9.686e-6
0.339, 6.503e-6
0.338, 5.330e-6
0.337, 4.505e-6
0.336, 3.895e-6
0.335, 3.342e-6
0.334, 2.920e-6
0.333, 2.498e-6
0.332, 2.186e-6
0.331, 1.908e-6
0.330, 1.644e-6
0.329, 1.378e-6
0.328, 1.182e-6
0.327, 9.793e-7
0.326, 7.765e-7
0.325, 6.240e-7
0.324, 4.749e-7
0.323, 3.459e-7
0.322, 2.017e-7
0.321, 6.937e-8
0.320, 1.224e-8
0.319, -1.102e-7
0.318, -2.123e-7
0.317, -3.086e-7
0.316, -4.018e-7
0.315, -4.528e-7
0.314, -5.292e-7
0.313, -6.162e-7
0.312, -6.619e-7
0.311, -7.195e-7
0.310, -7.663e-7
0.309, -8.099e-7
0.308, -8.980e-7
0.307, -9.824e-7
0.306, -9.504e-7
0.305, -1.001e-6
0.304, -1.021e-6
0.303, -1.060e-6
0.302, -1.080e-6
0.301, -1.110e-6
0.300, -1.147e-6
0.299, -1.158e-6
0.298, -1.176e-6
0.297, -1.204e-6
0.296, -1.210e-6
0.295, -1.226e-6
0.294, -1.239e-6
0.293, -1.258e-6
0.292, -1.278e-6
0.291, -1.283e-6
0.290, -1.295e-6
0.289, -1.315e-6
0.288, -1.318e-6
0.287, -1.327e-6
0.286, -1.338e-6
0.285, -1.337e-6
0.284, -1.350e-6
0.283, -1.356e-6
0.282, -1.377e-6
0.281, -1.368e-6
0.280, -1.365e-6
0.279, -1.362e-6
0.278, -1.378e-6
0.277, -1.367e-6
0.276, -1.393e-6
0.275, -1.374e-6
0.274, -1.374e-6
0.273, -1.392e-6
0.272, -1.371e-6
0.271, -1.391e-6
0.270, -1.390e-6
0.269, -1.368e-6
0.268, -1.386e-6
0.267, -1.388e-6
0.266, -1.379e-6
0.265, -1.399e-6
0.264, -1.381e-6
0.263, -1.387e-6
0.262, -1.388e-6
0.261, -1.380e-6
0.260, -1.387e-6
0.259, -1.384e-6
0.258, -1.385e-6
0.257, -1.388e-6
0.256, -1.391e-6
0.255, -1.388e-6
0.254, -1.389e-6
0.253, -1.375e-6
0.252, -1.393e-6
0.251, -1.382e-6
0.250, -1.386e-6
0.249, -1.393e-6
0.248, -1.378e-6
0.247, -1.395e-6
0.246, -1.391e-6
0.245, -1.385e-6
0.244, -1.393e-6
0.243, -1.377e-6
0.242, -1.394e-6
0.241, -1.397e-6
0.240, -1.068e-7
0.241, 1.065e-6
0.242, 1.383e-6
0.243, 1.568e-6
0.244, 1.762e-6
0.245, 1.900e-6
0.246, 2.030e-6
0.247, 2.169e-6
0.248, 2.271e-6
0.249, 2.378e-6
0.250, 2.471e-6
0.251, 2.568e-6
0.252, 2.663e-6
0.253, 2.741e-6
0.254, 2.829e-6
0.255, 2.920e-6
0.256, 3.005e-6
0.257, 3.088e-6
0.258, 3.163e-6
0.259, 3.244e-6
0.260, 3.326e-6
0.261, 3.409e-6
0.262, 3.483e-6
0.263, 3.576e-6
0.264, 3.638e-6
0.265, 3.723e-6
0.266, 3.792e-6
0.267, 3.886e-6
0.268, 3.966e-6
0.269, 4.027e-6
0.270, 4.113e-6
0.271, 4.206e-6
0.272, 4.278e-6
0.273, 4.371e-6
0.274, 4.445e-6
0.275, 4.538e-6
0.276, 4.620e-6
0.277, 4.699e-6
0.278, 4.792e-6
0.279, 4.882e-6
0.280, 4.954e-6
0.281, 5.054e-6
0.282, 5.151e-6
0.283, 5.226e-6
0.284, 5.322e-6
0.285, 5.407e-6
0.286, 5.499e-6
0.287, 5.607e-6
0.288, 5.694e-6
0.289, 5.783e-6
0.290, 5.888e-6
0.291, 5.985e-6
0.292, 6.074e-6
0.293, 6.170e-6
0.294, 6.260e-6
0.295, 6.368e-6
0.296, 6.455e-6
0.297, 6.583e-6
0.298, 6.667e-6
0.299, 6.785e-6
0.300, 6.899e-6
0.301, 6.976e-6
0.302, 7.105e-6
0.303, 7.211e-6
0.304, 7.313e-6
0.305, 7.427e-6
0.306, 7.541e-6
0.307, 7.721e-6
0.308, 7.811e-6
0.309, 7.907e-6
0.310, 8.001e-6
0.311, 8.136e-6
0.312, 8.241e-6
0.313, 8.377e-6
0.314, 8.481e-6
0.315, 8.611e-6
0.316, 8.735e-6
0.317, 8.854e-6
0.318, 8.979e-6
0.319, 9.116e-6
0.320, 9.210e-6
0.321, 9.358e-6
0.322, 9.487e-6
0.323, 9.618e-6
0.324, 9.766e-6
0.325, 9.878e-6
0.326, 1.003e-5
0.327, 1.018e-5
0.328, 1.030e-5
0.329, 1.047e-5
0.330, 1.059e-5
0.331, 1.074e-5
0.332, 1.091e-5
0.333, 1.105e-5
0.334, 1.118e-5
0.335, 1.135e-5
0.336, 1.149e-5
0.337, 1.165e-5
0.338, 1.181e-5
0.339, 1.198e-5
0.340, 9.543e-6
0.339, 6.377e-6
0.338, 5.195e-6
0.337, 4.384e-6
0.336, 3.761e-6
0.335, 3.249e-6
0.334, 2.813e-6
0.333, 2.404e-6
0.332, 2.091e-6
0.331, 1.810e-6
0.330, 1.535e-6
0.329, 1.287e-6
0.328, 1.082e-6
0.327, 8.809e-7
0.326, 6.957e-7
0.325, 5.458e-7
0.324, 3.753e-7
0.323, 2.601e-7
0.322, 1.228e-7
0.321, -7.030e-9
0.320, -8.443e-8
0.319, -2.008e-7
0.318, -2.909e-7
0.317, -3.749e-7
0.316, -4.604e-7
0.315, -5.304e-7
0.314, -6.064e-7
0.313, -6.744e-7
0.312, -7.280e-7
0.311, -7.886e-7
0.310, -8.349e-7
0.309, -8.888e-7
0.308, -9.514e-7
0.307, -1.060e-6
0.306, -1.032e-6
0.305, -1.073e-6
0.304, -1.076e-6
0.303, -1.123e-6
0.302, -1.145e-6
0.301, -1.166e-6
0.300, -1.202e-6
0.299, -1.218e-6
0.298, -1.224e-6
0.297, -1.259e-6
0.296, -1.273e-6
0.295, -1.276e-6
0.294, -1.297e-6
0.293, -1.318e-6
0.292, -1.331e-6
0.291, -1.334e-6
0.290, -1.343e-6
0.289, -1.366e-6
0.288, -1.360e-6
0.287, -1.382e-6
0.286, -1.390e-6
0.285, -1.397e-6
0.284, -1.394e-6
0.283, -1.393e-6
0.282, -1.430e-6
0.281, -1.424e-6
0.280, -1.401e-6
0.279, -1.413e-6
0.278, -1.419e-6
0.277, -1.419e-6
0.276, -1.429e-6
0.275, -1.420e-6
0.274, -1.424e-6
0.273, -1.434e-6
0.272, -1.426e-6
0.271, -1.430e-6
0.270, -1.425e-6
0.269, -1.413e-6
0.268, -1.429e-6
0.267, -1.425e-6
0.266, -1.418e-6
0.265, -1.436e-6
0.264, -1.418e-6
0.263, -1.430e-6
0.262, -1.431e-6
0.261, -1.432e-6
0.260, -1.428e-6
0.259, -1.424e-6
0.258, -1.427e-6
0.257, -1.433e-6
0.256, -1.437e-6
0.255, -1.426e-6
0.254, -1.426e-6
0.253, -1.422e-6
0.252, -1.432e-6
0.251, -1.426e-6
0.250, -1.417e-6
0.249, -1.434e-6
0.248, -1.424e-6
0.247, -1.427e-6
0.246, -1.425e-6
0.245, -1.429e-6
0.244, -1.433e-6
0.243, -1.412e-6
0.242, -1.434e-6
0.241, -1.440e-6
0.240, -1.467e-7
0.241, 1.023e-6
0.242, 1.333e-6
0.243, 1.538e-6
0.244, 1.723e-6
0.245, 1.861e-6
0.246, 1.984e-6
0.247, 2.123e-6
0.248, 2.218e-6
0.249, 2.336e-6
0.250, 2.427e-6
0.251, 2.523e-6
0.252, 2.620e-6
0.253, 2.696e-6
0.254, 2.780e-6
0.255, 2.874e-6
0.256, 2.962e-6
0.257, 3.034e-6
0.258, 3.111e-6
0.259, 3.201e-6
0.260, 3.268e-6
0.261, 3.357e-6
0.262, 3.428e-6
0.263, 3.516e-6
0.264, 3.580e-6
0.265, 3.671e-6
0.266, 3.745e-6
0.267, 3.833e-6
0.268, 3.902e-6
0.269, 3.968e-6
0.270, 4.062e-6
0.271, 4.143e-6
0.272, 4.217e-6
0.273, 4.309e-6
0.274, 4.386e-6
0.275, 4.481e-6
0.276, 4.550e-6
0.277, 4.639e-6
0.278, 4.721e-6
0.279, 4.811e-6
0.280, 4.890e-6
0.281, 4.992e-6
0.282, 5.068e-6
0.283, 5.163e-6
0.284, 5.254e-6
0.285, 5.325e-6
0.286, 5.424e-6
0.287, 5.533e-6
0.288, 5.613e-6
0.289, 5.714e-6
0.290, 5.798e-6
0.291, 5.898e-6
0.292, 5.992e-6
0.293, 6.093e-6
0.294, 6.171e-6
0.295, 6.287e-6
0.296, 6.379e-6
0.297, 6.489e-6
0.298, 6.594e-6
0.299, 6.699e-6
0.300, 6.813e-6
0.301, 6.903e-6
0.302, 7.011e-6
0.303, 7.127e-6
0.304, 7.219e-6
0.305, 7.349e-6
0.306, 7.437e-6
0.307, 7.641e-6
0.308, 7.718e-6
0.309, 7.804e-6
0.310, 7.911e-6
0.311, 8.049e-6
0.312, 8.142e-6
0.313, 8.274e-6
0.314, 8.388e-6
0.315, 8.514e-6
0.316, 8.638e-6
0.317, 8.753e-6
0.318, 8.881e-6
0.319, 9.017e-6
0.320, 9.114e-6
0.321, 9.255e-6
0.322, 9.394e-6
0.323, 9.524e-6
0.324, 9.668e-6
0.325, 9.788e-6
0.326, 9.933e-6
0.327, 1.007e-5
0.328, 1.020e-5
0.329, 1.036e-5
0.330, 1.049e-5
0.331, 1.063e-5
0.332, 1.080e-5
0.333, 1.095e-5
0.334, 1.109e-5
0.335, 1.125e-5
0.336, 1.138e-5
0.337, 1.156e-5
0.338, 1.170e-5
0.339, 1.186e-5
0.340, 9.444e-6
0.339, 6.309e-6
0.338, 5.112e-6
0.337, 4.298e-6
0.336, 3.688e-6
0.335, 3.178e-6
0.334, 2.734e-6
0.333, 2.321e-6
0.332, 2.005e-6
0.331, 1.731e-6
0.330, 1.469e-6
0.329, 1.216e-6
0.328, 1.018e-6
0.327, 8.137e-7
0.326, 6.249e-7
0.325, 4.679e-7
0.324, 3.275e-7
0.323, 1.971e-7
0.322, 7.160e-8
0.321, -5.963e-8
0.320, -1.297e-7
0.319, -2.536e-7
0.318, -3.632e-7
0.317, -4.368e-7
0.316, -5.229e-7
0.315, -5.890e-7
0.314, -6.642e-7
0.313, -7.096e-7
0.312, -7.836e-7
0.311, -8.209e-7
0.310, -8.867e-7
0.309, -9.403e-7
0.308, -1.003e-6
0.307, -1.099e-6
0.306, -1.077e-6
0.305, -1.116e-6
0.304, -1.121e-6
0.303, -1.158e-6
0.302, -1.193e-6
0.301, -1.214e-6
0.300, -1.253e-6
0.299, -1.252e-6
0.298, -1.270e-6
0.297, -1.308e-6
0.296, -1.307e-6
0.295, -1.317e-6
0.294, -1.336e-6
0.293, -1.349e-6
0.292, -1.372e-6
0.291, -1.371e-6
0.290, -1.390e-6
0.289, -1.404e-6
0.288, -1.404e-6
0.287, -1.426e-6
0.286, -1.416e-6
0.285, -1.423e-6
0.284, -1.439e-6
0.283, -1.430e-6
0.282, -1.456e-6
0.281, -1.458e-6
0.280, -1.451e-6
0.279, -1.445e-6
0.278, -1.456e-6
0.277, -1.456e-6
0.276, -1.455e-6
0.275, -1.465e-6
0.274, -1.455e-6
0.273, -1.465e-6
0.272, -1.453e-6
0.271, -1.455e-6
0.270, -1.465e-6
0.269, -1.447e-6
0.268, -1.457e-6
0.267, -1.459e-6
0.266, -1.458e-6
0.265, -1.457e-6
0.264, -1.459e-6
0.263, -1.465e-6
0.262, -1.457e-6
0.261, -1.458e-6
0.260, -1.458e-6
0.259, -1.453e-6
0.258, -1.446e-6
0.257, -1.459e-6
0.256, -1.462e-6
0.255, -1.455e-6
0.254, -1.455e-6
0.253, -1.450e-6
0.252, -1.450e-6
0.251, -1.455e-6
0.250, -1.455e-6
0.249, -1.464e-6
0.248, -1.452e-6
0.247, -1.454e-6
0.246, -1.455e-6
0.245, -1.451e-6
0.244, -1.454e-6
0.243, -1.445e-6
0.242, -1.444e-6
0.241, -1.469e-6
