Sept. 21, 2026   17:22:30
Cyclic Voltammetry
File: d:\desktop\sample\ss310 1 cm2\ss310_sheet cv 40 mv.bin
Data Source:  Experiment
Instrument Model:  CHI660D
Header: 
Note: 

Init E (V) = 0.24
High E (V) = 0.34
Low E (V) = 0.24
Init P/N = P
Scan Rate (V/s) = 0.04
Segment = 20
Sample Interval (V) = 0.001
Quiet Time (sec) = 2
Sensitivity (A/V) = 1e-5

Results:

Channel 1:
Segment 1:

Segment 2:

Segment 3:

Segment 4:

Segment 5:

Segment 6:

Segment 7:

Segment 8:

Segment 9:

Segment 10:

Segment 11:

Segment 12:

Segment 13:

Segment 14:

Segment 15:

Segment 16:

Segment 17:

Segment 18:

Segment 19:

Segment 20:

Potential/V, Current/A

0.240, 2.840e-6
0.241, 4.172e-6
0.242, 4.533e-6
0.243, 4.719e-6
0.244, 4.899e-6
0.245, 5.031e-6
0.246, 5.171e-6
0.247, 5.289e-6
0.248, 5.405e-6
0.249, 5.511e-6
0.250, 5.607e-6
0.251, 5.718e-6
0.252, 5.822e-6
0.253, 5.910e-6
0.254, 6.015e-6
0.255, 6.114e-6
0.256, 6.222e-6
0.257, 6.316e-6
0.258, 6.403e-6
0.259, 6.509e-6
0.260, 6.610e-6
0.261, 6.696e-6
0.262, 6.808e-6
0.263, 6.907e-6
0.264, 7.008e-6
0.265, 7.107e-6
0.266, 7.207e-6
0.267, 7.303e-6
0.268, 7.410e-6
0.269, 7.493e-6
0.270, 7.636e-6
0.271, 7.727e-6
0.272, 7.847e-6
0.273, 7.964e-6
0.274, 8.058e-6
0.275, 8.186e-6
0.276, 8.309e-6
0.277, 8.417e-6
0.278, 8.537e-6
0.279, 8.655e-6
0.280, 8.765e-6
0.281, 8.912e-6
0.282, 9.048e-6
0.283, 9.157e-6
0.284, 9.284e-6
0.285, 9.400e-6
0.286, 9.550e-6
0.287, 9.677e-6
0.288, 9.812e-6
0.289, 9.955e-6
0.290, 1.008e-5
0.291, 1.023e-5
0.292, 1.036e-5
0.293, 1.051e-5
0.294, 1.066e-5
0.295, 1.079e-5
0.296, 1.094e-5
0.297, 1.110e-5
0.298, 1.124e-5
0.299, 1.140e-5
0.300, 1.157e-5
0.301, 1.173e-5
0.302, 1.190e-5
0.303, 1.205e-5
0.304, 1.220e-5
0.305, 1.239e-5
0.306, 1.254e-5
0.307, 1.280e-5
0.308, 1.299e-5
0.309, 1.310e-5
0.310, 1.328e-5
0.311, 1.345e-5
0.312, 1.362e-5
0.313, 1.383e-5
0.314, 1.401e-5
0.315, 1.418e-5
0.316, 1.438e-5
0.317, 1.455e-5
0.318, 1.478e-5
0.319, 1.497e-5
0.320, 1.512e-5
0.321, 1.534e-5
0.322, 1.553e-5
0.323, 1.577e-5
0.324, 1.599e-5
0.325, 1.619e-5
0.326, 1.642e-5
0.327, 1.662e-5
0.328, 1.685e-5
0.329, 1.708e-5
0.330, 1.728e-5
0.331, 1.753e-5
0.332, 1.776e-5
0.333, 1.804e-5
0.334, 1.825e-5
0.335, 1.847e-5
0.336, 1.873e-5
0.337, 1.899e-5
0.338, 1.922e-5
0.339, 1.949e-5
0.340, 1.751e-5
0.339, 1.152e-5
0.338, 9.043e-6
0.337, 7.550e-6
0.336, 6.444e-6
0.335, 5.546e-6
0.334, 4.801e-6
0.333, 4.072e-6
0.332, 3.502e-6
0.331, 3.008e-6
0.330, 2.540e-6
0.329, 2.104e-6
0.328, 1.757e-6
0.327, 1.400e-6
0.326, 1.099e-6
0.325, 7.819e-7
0.324, 4.949e-7
0.323, 2.751e-7
0.322, 4.051e-8
0.321, -1.753e-7
0.320, -3.376e-7
0.319, -5.588e-7
0.318, -7.151e-7
0.317, -8.804e-7
0.316, -1.039e-6
0.315, -1.158e-6
0.314, -1.327e-6
0.313, -1.435e-6
0.312, -1.548e-6
0.311, -1.679e-6
0.310, -1.753e-6
0.309, -1.861e-6
0.308, -1.948e-6
0.307, -2.163e-6
0.306, -2.142e-6
0.305, -2.213e-6
0.304, -2.259e-6
0.303, -2.329e-6
0.302, -2.374e-6
0.301, -2.435e-6
0.300, -2.496e-6
0.299, -2.522e-6
0.298, -2.582e-6
0.297, -2.633e-6
0.296, -2.668e-6
0.295, -2.697e-6
0.294, -2.695e-6
0.293, -2.759e-6
0.292, -2.790e-6
0.291, -2.810e-6
0.290, -2.847e-6
0.289, -2.859e-6
0.288, -2.902e-6
0.287, -2.918e-6
0.286, -2.938e-6
0.285, -2.950e-6
0.284, -2.973e-6
0.283, -2.980e-6
0.282, -3.017e-6
0.281, -3.035e-6
0.280, -3.021e-6
0.279, -3.034e-6
0.278, -3.029e-6
0.277, -3.060e-6
0.276, -3.062e-6
0.275, -3.072e-6
0.274, -3.081e-6
0.273, -3.083e-6
0.272, -3.086e-6
0.271, -3.109e-6
0.270, -3.098e-6
0.269, -3.090e-6
0.268, -3.094e-6
0.267, -3.102e-6
0.266, -3.107e-6
0.265, -3.113e-6
0.264, -3.096e-6
0.263, -3.129e-6
0.262, -3.111e-6
0.261, -3.134e-6
0.260, -3.129e-6
0.259, -3.120e-6
0.258, -3.119e-6
0.257, -3.127e-6
0.256, -3.134e-6
0.255, -3.128e-6
0.254, -3.121e-6
0.253, -3.138e-6
0.252, -3.124e-6
0.251, -3.119e-6
0.250, -3.132e-6
0.249, -3.128e-6
0.248, -3.119e-6
0.247, -3.138e-6
0.246, -3.113e-6
0.245, -3.127e-6
0.244, -3.133e-6
0.243, -3.104e-6
0.242, -3.118e-6
0.241, -3.125e-6
0.240, -1.889e-6
0.241, 8.385e-7
0.242, 1.540e-6
0.243, 1.921e-6
0.244, 2.226e-6
0.245, 2.469e-6
0.246, 2.693e-6
0.247, 2.867e-6
0.248, 3.039e-6
0.249, 3.211e-6
0.250, 3.345e-6
0.251, 3.503e-6
0.252, 3.636e-6
0.253, 3.747e-6
0.254, 3.895e-6
0.255, 4.007e-6
0.256, 4.141e-6
0.257, 4.264e-6
0.258, 4.355e-6
0.259, 4.488e-6
0.260, 4.590e-6
0.261, 4.703e-6
0.262, 4.824e-6
0.263, 4.926e-6
0.264, 5.039e-6
0.265, 5.146e-6
0.266, 5.251e-6
0.267, 5.362e-6
0.268, 5.484e-6
0.269, 5.563e-6
0.270, 5.690e-6
0.271, 5.807e-6
0.272, 5.913e-6
0.273, 6.037e-6
0.274, 6.153e-6
0.275, 6.268e-6
0.276, 6.388e-6
0.277, 6.508e-6
0.278, 6.629e-6
0.279, 6.737e-6
0.280, 6.853e-6
0.281, 6.996e-6
0.282, 7.136e-6
0.283, 7.254e-6
0.284, 7.382e-6
0.285, 7.477e-6
0.286, 7.630e-6
0.287, 7.772e-6
0.288, 7.899e-6
0.289, 8.048e-6
0.290, 8.168e-6
0.291, 8.300e-6
0.292, 8.461e-6
0.293, 8.595e-6
0.294, 8.749e-6
0.295, 8.874e-6
0.296, 9.036e-6
0.297, 9.186e-6
0.298, 9.322e-6
0.299, 9.493e-6
0.300, 9.670e-6
0.301, 9.825e-6
0.302, 9.978e-6
0.303, 1.014e-5
0.304, 1.029e-5
0.305, 1.049e-5
0.306, 1.066e-5
0.307, 1.090e-5
0.308, 1.110e-5
0.309, 1.119e-5
0.310, 1.140e-5
0.311, 1.157e-5
0.312, 1.174e-5
0.313, 1.195e-5
0.314, 1.213e-5
0.315, 1.232e-5
0.316, 1.250e-5
0.317, 1.269e-5
0.318, 1.291e-5
0.319, 1.311e-5
0.320, 1.328e-5
0.321, 1.351e-5
0.322, 1.372e-5
0.323, 1.392e-5
0.324, 1.415e-5
0.325, 1.437e-5
0.326, 1.459e-5
0.327, 1.482e-5
0.328, 1.506e-5
0.329, 1.527e-5
0.330, 1.551e-5
0.331, 1.576e-5
0.332, 1.602e-5
0.333, 1.628e-5
0.334, 1.653e-5
0.335, 1.675e-5
0.336, 1.697e-5
0.337, 1.727e-5
0.338, 1.750e-5
0.339, 1.775e-5
0.340, 1.584e-5
0.339, 9.875e-6
0.338, 7.466e-6
0.337, 6.041e-6
0.336, 4.984e-6
0.335, 4.107e-6
0.334, 3.403e-6
0.333, 2.744e-6
0.332, 2.201e-6
0.331, 1.747e-6
0.330, 1.308e-6
0.329, 9.247e-7
0.328, 5.726e-7
0.327, 2.424e-7
0.326, -3.394e-8
0.325, -3.116e-7
0.324, -5.523e-7
0.323, -7.619e-7
0.322, -9.814e-7
0.321, -1.169e-6
0.320, -1.310e-6
0.319, -1.520e-6
0.318, -1.661e-6
0.317, -1.796e-6
0.316, -1.939e-6
0.315, -2.033e-6
0.314, -2.172e-6
0.313, -2.273e-6
0.312, -2.372e-6
0.311, -2.466e-6
0.310, -2.523e-6
0.309, -2.622e-6
0.308, -2.715e-6
0.307, -2.922e-6
0.306, -2.879e-6
0.305, -2.921e-6
0.304, -2.956e-6
0.303, -3.030e-6
0.302, -3.059e-6
0.301, -3.119e-6
0.300, -3.151e-6
0.299, -3.177e-6
0.298, -3.219e-6
0.297, -3.252e-6
0.296, -3.254e-6
0.295, -3.301e-6
0.294, -3.293e-6
0.293, -3.336e-6
0.292, -3.376e-6
0.291, -3.383e-6
0.290, -3.414e-6
0.289, -3.413e-6
0.288, -3.439e-6
0.287, -3.461e-6
0.286, -3.459e-6
0.285, -3.452e-6
0.284, -3.481e-6
0.283, -3.482e-6
0.282, -3.502e-6
0.281, -3.523e-6
0.280, -3.519e-6
0.279, -3.525e-6
0.278, -3.499e-6
0.277, -3.513e-6
0.276, -3.521e-6
0.275, -3.519e-6
0.274, -3.532e-6
0.273, -3.534e-6
0.272, -3.516e-6
0.271, -3.533e-6
0.270, -3.517e-6
0.269, -3.498e-6
0.268, -3.515e-6
0.267, -3.520e-6
0.266, -3.510e-6
0.265, -3.511e-6
0.264, -3.513e-6
0.263, -3.517e-6
0.262, -3.507e-6
0.261, -3.502e-6
0.260, -3.512e-6
0.259, -3.486e-6
0.258, -3.485e-6
0.257, -3.494e-6
0.256, -3.500e-6
0.255, -3.496e-6
0.254, -3.489e-6
0.253, -3.478e-6
0.252, -3.480e-6
0.251, -3.465e-6
0.250, -3.462e-6
0.249, -3.464e-6
0.248, -3.466e-6
0.247, -3.475e-6
0.246, -3.447e-6
0.245, -3.452e-6
0.244, -3.451e-6
0.243, -3.430e-6
0.242, -3.433e-6
0.241, -3.435e-6
0.240, -2.205e-6
0.241, 5.416e-7
0.242, 1.247e-6
0.243, 1.630e-6
0.244, 1.930e-6
0.245, 2.178e-6
0.246, 2.398e-6
0.247, 2.575e-6
0.248, 2.742e-6
0.249, 2.913e-6
0.250, 3.059e-6
0.251, 3.187e-6
0.252, 3.358e-6
0.253, 3.460e-6
0.254, 3.588e-6
0.255, 3.708e-6
0.256, 3.845e-6
0.257, 3.955e-6
0.258, 4.049e-6
0.259, 4.167e-6
0.260, 4.297e-6
0.261, 4.387e-6
0.262, 4.506e-6
0.263, 4.609e-6
0.264, 4.721e-6
0.265, 4.825e-6
0.266, 4.940e-6
0.267, 5.036e-6
0.268, 5.158e-6
0.269, 5.238e-6
0.270, 5.357e-6
0.271, 5.480e-6
0.272, 5.586e-6
0.273, 5.698e-6
0.274, 5.796e-6
0.275, 5.926e-6
0.276, 6.030e-6
0.277, 6.144e-6
0.278, 6.279e-6
0.279, 6.382e-6
0.280, 6.507e-6
0.281, 6.636e-6
0.282, 6.763e-6
0.283, 6.888e-6
0.284, 6.998e-6
0.285, 7.112e-6
0.286, 7.255e-6
0.287, 7.376e-6
0.288, 7.510e-6
0.289, 7.671e-6
0.290, 7.780e-6
0.291, 7.907e-6
0.292, 8.064e-6
0.293, 8.195e-6
0.294, 8.331e-6
0.295, 8.470e-6
0.296, 8.622e-6
0.297, 8.783e-6
0.298, 8.912e-6
0.299, 9.084e-6
0.300, 9.233e-6
0.301, 9.390e-6
0.302, 9.548e-6
0.303, 9.724e-6
0.304, 9.866e-6
0.305, 1.004e-5
0.306, 1.021e-5
0.307, 1.046e-5
0.308, 1.066e-5
0.309, 1.075e-5
0.310, 1.093e-5
0.311, 1.110e-5
0.312, 1.128e-5
0.313, 1.150e-5
0.314, 1.165e-5
0.315, 1.186e-5
0.316, 1.205e-5
0.317, 1.223e-5
0.318, 1.245e-5
0.319, 1.264e-5
0.320, 1.280e-5
0.321, 1.302e-5
0.322, 1.324e-5
0.323, 1.347e-5
0.324, 1.368e-5
0.325, 1.388e-5
0.326, 1.412e-5
0.327, 1.433e-5
0.328, 1.457e-5
0.329, 1.480e-5
0.330, 1.502e-5
0.331, 1.527e-5
0.332, 1.553e-5
0.333, 1.577e-5
0.334, 1.600e-5
0.335, 1.625e-5
0.336, 1.650e-5
0.337, 1.676e-5
0.338, 1.701e-5
0.339, 1.730e-5
0.340, 1.532e-5
0.339, 9.417e-6
0.338, 6.987e-6
0.337, 5.591e-6
0.336, 4.566e-6
0.335, 3.690e-6
0.334, 2.984e-6
0.333, 2.352e-6
0.332, 1.809e-6
0.331, 1.363e-6
0.330, 9.656e-7
0.329, 5.609e-7
0.328, 2.151e-7
0.327, -1.070e-7
0.326, -3.464e-7
0.325, -6.271e-7
0.324, -8.707e-7
0.323, -1.072e-6
0.322, -1.271e-6
0.321, -1.480e-6
0.320, -1.622e-6
0.319, -1.774e-6
0.318, -1.941e-6
0.317, -2.072e-6
0.316, -2.229e-6
0.315, -2.333e-6
0.314, -2.428e-6
0.313, -2.546e-6
0.312, -2.628e-6
0.311, -2.729e-6
0.310, -2.799e-6
0.309, -2.876e-6
0.308, -2.946e-6
0.307, -3.160e-6
0.306, -3.126e-6
0.305, -3.151e-6
0.304, -3.180e-6
0.303, -3.250e-6
0.302, -3.282e-6
0.301, -3.331e-6
0.300, -3.367e-6
0.299, -3.392e-6
0.298, -3.417e-6
0.297, -3.460e-6
0.296, -3.471e-6
0.295, -3.522e-6
0.294, -3.493e-6
0.293, -3.538e-6
0.292, -3.575e-6
0.291, -3.571e-6
0.290, -3.596e-6
0.289, -3.613e-6
0.288, -3.615e-6
0.287, -3.627e-6
0.286, -3.636e-6
0.285, -3.653e-6
0.284, -3.663e-6
0.283, -3.654e-6
0.282, -3.684e-6
0.281, -3.678e-6
0.280, -3.683e-6
0.279, -3.704e-6
0.278, -3.667e-6
0.277, -3.670e-6
0.276, -3.686e-6
0.275, -3.684e-6
0.274, -3.689e-6
0.273, -3.689e-6
0.272, -3.670e-6
0.271, -3.685e-6
0.270, -3.674e-6
0.269, -3.648e-6
0.268, -3.663e-6
0.267, -3.667e-6
0.266, -3.658e-6
0.265, -3.657e-6
0.264, -3.648e-6
0.263, -3.656e-6
0.262, -3.639e-6
0.261, -3.644e-6
0.260, -3.645e-6
0.259, -3.635e-6
0.258, -3.635e-6
0.257, -3.644e-6
0.256, -3.637e-6
0.255, -3.632e-6
0.254, -3.615e-6
0.253, -3.605e-6
0.252, -3.600e-6
0.251, -3.601e-6
0.250, -3.607e-6
0.249, -3.605e-6
0.248, -3.579e-6
0.247, -3.596e-6
0.246, -3.581e-6
0.245, -3.578e-6
0.244, -3.575e-6
0.243, -3.555e-6
0.242, -3.566e-6
0.241, -3.564e-6
0.240, -2.321e-6
0.241, 4.236e-7
0.242, 1.142e-6
0.243, 1.511e-6
0.244, 1.808e-6
0.245, 2.065e-6
0.246, 2.279e-6
0.247, 2.460e-6
0.248, 2.632e-6
0.249, 2.802e-6
0.250, 2.954e-6
0.251, 3.082e-6
0.252, 3.221e-6
0.253, 3.336e-6
0.254, 3.471e-6
0.255, 3.586e-6
0.256, 3.712e-6
0.257, 3.830e-6
0.258, 3.930e-6
0.259, 4.040e-6
0.260, 4.151e-6
0.261, 4.261e-6
0.262, 4.385e-6
0.263, 4.471e-6
0.264, 4.587e-6
0.265, 4.688e-6
0.266, 4.794e-6
0.267, 4.913e-6
0.268, 5.015e-6
0.269, 5.079e-6
0.270, 5.221e-6
0.271, 5.335e-6
0.272, 5.438e-6
0.273, 5.552e-6
0.274, 5.659e-6
0.275, 5.769e-6
0.276, 5.895e-6
0.277, 6.008e-6
0.278, 6.114e-6
0.279, 6.239e-6
0.280, 6.336e-6
0.281, 6.462e-6
0.282, 6.601e-6
0.283, 6.710e-6
0.284, 6.837e-6
0.285, 6.962e-6
0.286, 7.087e-6
0.287, 7.209e-6
0.288, 7.342e-6
0.289, 7.480e-6
0.290, 7.607e-6
0.291, 7.735e-6
0.292, 7.895e-6
0.293, 8.014e-6
0.294, 8.150e-6
0.295, 8.281e-6
0.296, 8.433e-6
0.297, 8.590e-6
0.298, 8.737e-6
0.299, 8.874e-6
0.300, 9.053e-6
0.301, 9.192e-6
0.302, 9.369e-6
0.303, 9.520e-6
0.304, 9.675e-6
0.305, 9.839e-6
0.306, 9.995e-6
0.307, 1.026e-5
0.308, 1.045e-5
0.309, 1.054e-5
0.310, 1.071e-5
0.311, 1.090e-5
0.312, 1.107e-5
0.313, 1.127e-5
0.314, 1.145e-5
0.315, 1.164e-5
0.316, 1.184e-5
0.317, 1.201e-5
0.318, 1.222e-5
0.319, 1.241e-5
0.320, 1.258e-5
0.321, 1.281e-5
0.322, 1.302e-5
0.323, 1.322e-5
0.324, 1.344e-5
0.325, 1.365e-5
0.326, 1.389e-5
0.327, 1.412e-5
0.328, 1.433e-5
0.329, 1.457e-5
0.330, 1.476e-5
0.331, 1.502e-5
0.332, 1.528e-5
0.333, 1.554e-5
0.334, 1.577e-5
0.335, 1.601e-5
0.336, 1.625e-5
0.337, 1.652e-5
0.338, 1.674e-5
0.339, 1.703e-5
0.340, 1.509e-5
0.339, 9.176e-6
0.338, 6.760e-6
0.337, 5.376e-6
0.336, 4.375e-6
0.335, 3.503e-6
0.334, 2.792e-6
0.333, 2.137e-6
0.332, 1.628e-6
0.331, 1.184e-6
0.330, 7.544e-7
0.329, 4.065e-7
0.328, 5.528e-8
0.327, -2.539e-7
0.326, -5.369e-7
0.325, -7.922e-7
0.324, -1.035e-6
0.323, -1.218e-6
0.322, -1.425e-6
0.321, -1.628e-6
0.320, -1.756e-6
0.319, -1.932e-6
0.318, -2.084e-6
0.317, -2.229e-6
0.316, -2.343e-6
0.315, -2.454e-6
0.314, -2.579e-6
0.313, -2.676e-6
0.312, -2.762e-6
0.311, -2.854e-6
0.310, -2.918e-6
0.309, -2.995e-6
0.308, -3.088e-6
0.307, -3.272e-6
0.306, -3.215e-6
0.305, -3.268e-6
0.304, -3.299e-6
0.303, -3.342e-6
0.302, -3.393e-6
0.301, -3.429e-6
0.300, -3.460e-6
0.299, -3.486e-6
0.298, -3.518e-6
0.297, -3.569e-6
0.296, -3.571e-6
0.295, -3.617e-6
0.294, -3.612e-6
0.293, -3.634e-6
0.292, -3.662e-6
0.291, -3.664e-6
0.290, -3.692e-6
0.289, -3.707e-6
0.288, -3.712e-6
0.287, -3.721e-6
0.286, -3.740e-6
0.285, -3.730e-6
0.284, -3.744e-6
0.283, -3.737e-6
0.282, -3.765e-6
0.281, -3.778e-6
0.280, -3.767e-6
0.279, -3.777e-6
0.278, -3.768e-6
0.277, -3.766e-6
0.276, -3.773e-6
0.275, -3.748e-6
0.274, -3.769e-6
0.273, -3.761e-6
0.272, -3.744e-6
0.271, -3.767e-6
0.270, -3.752e-6
0.269, -3.740e-6
0.268, -3.744e-6
0.267, -3.735e-6
0.266, -3.741e-6
0.265, -3.730e-6
0.264, -3.726e-6
0.263, -3.722e-6
0.262, -3.719e-6
0.261, -3.722e-6
0.260, -3.715e-6
0.259, -3.697e-6
0.258, -3.700e-6
0.257, -3.693e-6
0.256, -3.702e-6
0.255, -3.698e-6
0.254, -3.685e-6
0.253, -3.674e-6
0.252, -3.682e-6
0.251, -3.672e-6
0.250, -3.655e-6
0.249, -3.671e-6
0.248, -3.661e-6
0.247, -3.664e-6
0.246, -3.652e-6
0.245, -3.644e-6
0.244, -3.644e-6
0.243, -3.616e-6
0.242, -3.628e-6
0.241, -3.633e-6
0.240, -2.390e-6
0.241, 3.590e-7
0.242, 1.081e-6
0.243, 1.451e-6
0.244, 1.756e-6
0.245, 1.993e-6
0.246, 2.202e-6
0.247, 2.394e-6
0.248, 2.565e-6
0.249, 2.738e-6
0.250, 2.870e-6
0.251, 3.021e-6
0.252, 3.165e-6
0.253, 3.264e-6
0.254, 3.399e-6
0.255, 3.520e-6
0.256, 3.640e-6
0.257, 3.762e-6
0.258, 3.865e-6
0.259, 3.974e-6
0.260, 4.082e-6
0.261, 4.177e-6
0.262, 4.303e-6
0.263, 4.404e-6
0.264, 4.513e-6
0.265, 4.626e-6
0.266, 4.702e-6
0.267, 4.831e-6
0.268, 4.938e-6
0.269, 5.012e-6
0.270, 5.134e-6
0.271, 5.252e-6
0.272, 5.355e-6
0.273, 5.466e-6
0.274, 5.561e-6
0.275, 5.700e-6
0.276, 5.805e-6
0.277, 5.921e-6
0.278, 6.024e-6
0.279, 6.135e-6
0.280, 6.252e-6
0.281, 6.374e-6
0.282, 6.509e-6
0.283, 6.611e-6
0.284, 6.754e-6
0.285, 6.850e-6
0.286, 6.984e-6
0.287, 7.111e-6
0.288, 7.243e-6
0.289, 7.383e-6
0.290, 7.500e-6
0.291, 7.640e-6
0.292, 7.777e-6
0.293, 7.897e-6
0.294, 8.043e-6
0.295, 8.178e-6
0.296, 8.330e-6
0.297, 8.479e-6
0.298, 8.618e-6
0.299, 8.787e-6
0.300, 8.938e-6
0.301, 9.081e-6
0.302, 9.239e-6
0.303, 9.401e-6
0.304, 9.557e-6
0.305, 9.734e-6
0.306, 9.867e-6
0.307, 1.013e-5
0.308, 1.031e-5
0.309, 1.044e-5
0.310, 1.061e-5
0.311, 1.075e-5
0.312, 1.095e-5
0.313, 1.113e-5
0.314, 1.131e-5
0.315, 1.150e-5
0.316, 1.170e-5
0.317, 1.188e-5
0.318, 1.208e-5
0.319, 1.226e-5
0.320, 1.243e-5
0.321, 1.269e-5
0.322, 1.286e-5
0.323, 1.309e-5
0.324, 1.330e-5
0.325, 1.352e-5
0.326, 1.373e-5
0.327, 1.396e-5
0.328, 1.417e-5
0.329, 1.444e-5
0.330, 1.463e-5
0.331, 1.489e-5
0.332, 1.510e-5
0.333, 1.538e-5
0.334, 1.562e-5
0.335, 1.586e-5
0.336, 1.609e-5
0.337, 1.637e-5
0.338, 1.660e-5
0.339, 1.690e-5
0.340, 1.490e-5
0.339, 9.032e-6
0.338, 6.631e-6
0.337, 5.261e-6
0.336, 4.222e-6
0.335, 3.374e-6
0.334, 2.673e-6
0.333, 2.034e-6
0.332, 1.508e-6
0.331, 1.062e-6
0.330, 6.487e-7
0.329, 2.976e-7
0.328, -4.247e-8
0.327, -3.724e-7
0.326, -6.421e-7
0.325, -8.837e-7
0.324, -1.121e-6
0.323, -1.313e-6
0.322, -1.528e-6
0.321, -1.697e-6
0.320, -1.855e-6
0.319, -2.035e-6
0.318, -2.155e-6
0.317, -2.293e-6
0.316, -2.434e-6
0.315, -2.548e-6
0.314, -2.659e-6
0.313, -2.735e-6
0.312, -2.834e-6
0.311, -2.932e-6
0.310, -2.975e-6
0.309, -3.061e-6
0.308, -3.152e-6
0.307, -3.336e-6
0.306, -3.317e-6
0.305, -3.335e-6
0.304, -3.378e-6
0.303, -3.417e-6
0.302, -3.435e-6
0.301, -3.509e-6
0.300, -3.534e-6
0.299, -3.562e-6
0.298, -3.590e-6
0.297, -3.623e-6
0.296, -3.647e-6
0.295, -3.658e-6
0.294, -3.652e-6
0.293, -3.701e-6
0.292, -3.723e-6
0.291, -3.732e-6
0.290, -3.740e-6
0.289, -3.753e-6
0.288, -3.774e-6
0.287, -3.783e-6
0.286, -3.772e-6
0.285, -3.792e-6
0.284, -3.798e-6
0.283, -3.784e-6
0.282, -3.829e-6
0.281, -3.825e-6
0.280, -3.823e-6
0.279, -3.820e-6
0.278, -3.810e-6
0.277, -3.816e-6
0.276, -3.810e-6
0.275, -3.820e-6
0.274, -3.814e-6
0.273, -3.815e-6
0.272, -3.797e-6
0.271, -3.811e-6
0.270, -3.790e-6
0.269, -3.776e-6
0.268, -3.794e-6
0.267, -3.783e-6
0.266, -3.775e-6
0.265, -3.781e-6
0.264, -3.766e-6
0.263, -3.773e-6
0.262, -3.764e-6
0.261, -3.761e-6
0.260, -3.764e-6
0.259, -3.736e-6
0.258, -3.746e-6
0.257, -3.753e-6
0.256, -3.752e-6
0.255, -3.741e-6
0.254, -3.732e-6
0.253, -3.708e-6
0.252, -3.727e-6
0.251, -3.718e-6
0.250, -3.719e-6
0.249, -3.704e-6
0.248, -3.704e-6
0.247, -3.701e-6
0.246, -3.692e-6
0.245, -3.694e-6
0.244, -3.689e-6
0.243, -3.642e-6
0.242, -3.667e-6
0.241, -3.674e-6
0.240, -2.431e-6
0.241, 3.098e-7
0.242, 1.039e-6
0.243, 1.412e-6
0.244, 1.717e-6
0.245, 1.951e-6
0.246, 2.172e-6
0.247, 2.347e-6
0.248, 2.521e-6
0.249, 2.689e-6
0.250, 2.830e-6
0.251, 2.973e-6
0.252, 3.115e-6
0.253, 3.212e-6
0.254, 3.355e-6
0.255, 3.478e-6
0.256, 3.606e-6
0.257, 3.713e-6
0.258, 3.817e-6
0.259, 3.937e-6
0.260, 4.041e-6
0.261, 4.125e-6
0.262, 4.256e-6
0.263, 4.352e-6
0.264, 4.439e-6
0.265, 4.573e-6
0.266, 4.657e-6
0.267, 4.772e-6
0.268, 4.884e-6
0.269, 4.950e-6
0.270, 5.093e-6
0.271, 5.202e-6
0.272, 5.291e-6
0.273, 5.407e-6
0.274, 5.518e-6
0.275, 5.636e-6
0.276, 5.730e-6
0.277, 5.848e-6
0.278, 5.973e-6
0.279, 6.078e-6
0.280, 6.180e-6
0.281, 6.315e-6
0.282, 6.453e-6
0.283, 6.553e-6
0.284, 6.678e-6
0.285, 6.783e-6
0.286, 6.919e-6
0.287, 7.044e-6
0.288, 7.163e-6
0.289, 7.299e-6
0.290, 7.432e-6
0.291, 7.577e-6
0.292, 7.701e-6
0.293, 7.828e-6
0.294, 7.982e-6
0.295, 8.087e-6
0.296, 8.230e-6
0.297, 8.409e-6
0.298, 8.535e-6
0.299, 8.698e-6
0.300, 8.848e-6
0.301, 9.001e-6
0.302, 9.164e-6
0.303, 9.318e-6
0.304, 9.469e-6
0.305, 9.646e-6
0.306, 9.788e-6
0.307, 1.004e-5
0.308, 1.025e-5
0.309, 1.033e-5
0.310, 1.051e-5
0.311, 1.068e-5
0.312, 1.085e-5
0.313, 1.104e-5
0.314, 1.122e-5
0.315, 1.140e-5
0.316, 1.158e-5
0.317, 1.177e-5
0.318, 1.199e-5
0.319, 1.218e-5
0.320, 1.234e-5
0.321, 1.256e-5
0.322, 1.277e-5
0.323, 1.299e-5
0.324, 1.320e-5
0.325, 1.341e-5
0.326, 1.364e-5
0.327, 1.386e-5
0.328, 1.407e-5
0.329, 1.432e-5
0.330, 1.453e-5
0.331, 1.477e-5
0.332, 1.502e-5
0.333, 1.529e-5
0.334, 1.550e-5
0.335, 1.573e-5
0.336, 1.599e-5
0.337, 1.626e-5
0.338, 1.648e-5
0.339, 1.675e-5
0.340, 1.482e-5
0.339, 8.947e-6
0.338, 6.541e-6
0.337, 5.158e-6
0.336, 4.121e-6
0.335, 3.282e-6
0.334, 2.607e-6
0.333, 1.956e-6
0.332, 1.434e-6
0.331, 9.978e-7
0.330, 5.655e-7
0.329, 2.278e-7
0.328, -1.155e-7
0.327, -4.213e-7
0.326, -7.087e-7
0.325, -9.666e-7
0.324, -1.190e-6
0.323, -1.384e-6
0.322, -1.593e-6
0.321, -1.778e-6
0.320, -1.910e-6
0.319, -2.088e-6
0.318, -2.214e-6
0.317, -2.352e-6
0.316, -2.469e-6
0.315, -2.587e-6
0.314, -2.700e-6
0.313, -2.811e-6
0.312, -2.909e-6
0.311, -2.987e-6
0.310, -3.028e-6
0.309, -3.124e-6
0.308, -3.213e-6
0.307, -3.388e-6
0.306, -3.355e-6
0.305, -3.384e-6
0.304, -3.408e-6
0.303, -3.456e-6
0.302, -3.516e-6
0.301, -3.542e-6
0.300, -3.569e-6
0.299, -3.612e-6
0.298, -3.634e-6
0.297, -3.661e-6
0.296, -3.673e-6
0.295, -3.692e-6
0.294, -3.697e-6
0.293, -3.741e-6
0.292, -3.765e-6
0.291, -3.758e-6
0.290, -3.785e-6
0.289, -3.801e-6
0.288, -3.803e-6
0.287, -3.815e-6
0.286, -3.819e-6
0.285, -3.823e-6
0.284, -3.834e-6
0.283, -3.835e-6
0.282, -3.857e-6
0.281, -3.865e-6
0.280, -3.844e-6
0.279, -3.846e-6
0.278, -3.840e-6
0.277, -3.850e-6
0.276, -3.849e-6
0.275, -3.842e-6
0.274, -3.844e-6
0.273, -3.852e-6
0.272, -3.834e-6
0.271, -3.845e-6
0.270, -3.841e-6
0.269, -3.809e-6
0.268, -3.816e-6
0.267, -3.810e-6
0.266, -3.814e-6
0.265, -3.813e-6
0.264, -3.814e-6
0.263, -3.801e-6
0.262, -3.792e-6
0.261, -3.779e-6
0.260, -3.796e-6
0.259, -3.771e-6
0.258, -3.767e-6
0.257, -3.783e-6
0.256, -3.789e-6
0.255, -3.766e-6
0.254, -3.755e-6
0.253, -3.751e-6
0.252, -3.751e-6
0.251, -3.726e-6
0.250, -3.742e-6
0.249, -3.739e-6
0.248, -3.727e-6
0.247, -3.734e-6
0.246, -3.714e-6
0.245, -3.717e-6
0.244, -3.729e-6
0.243, -3.676e-6
0.242, -3.706e-6
0.241, -3.698e-6
0.240, -2.441e-6
0.241, 2.944e-7
0.242, 1.003e-6
0.243, 1.372e-6
0.244, 1.683e-6
0.245, 1.922e-6
0.246, 2.147e-6
0.247, 2.327e-6
0.248, 2.492e-6
0.249, 2.667e-6
0.250, 2.807e-6
0.251, 2.935e-6
0.252, 3.071e-6
0.253, 3.197e-6
0.254, 3.328e-6
0.255, 3.446e-6
0.256, 3.556e-6
0.257, 3.682e-6
0.258, 3.780e-6
0.259, 3.881e-6
0.260, 3.998e-6
0.261, 4.108e-6
0.262, 4.228e-6
0.263, 4.319e-6
0.264, 4.414e-6
0.265, 4.534e-6
0.266, 4.621e-6
0.267, 4.730e-6
0.268, 4.851e-6
0.269, 4.914e-6
0.270, 5.041e-6
0.271, 5.148e-6
0.272, 5.254e-6
0.273, 5.369e-6
0.274, 5.448e-6
0.275, 5.597e-6
0.276, 5.696e-6
0.277, 5.803e-6
0.278, 5.922e-6
0.279, 6.042e-6
0.280, 6.137e-6
0.281, 6.274e-6
0.282, 6.399e-6
0.283, 6.501e-6
0.284, 6.631e-6
0.285, 6.738e-6
0.286, 6.858e-6
0.287, 6.988e-6
0.288, 7.130e-6
0.289, 7.257e-6
0.290, 7.374e-6
0.291, 7.498e-6
0.292, 7.645e-6
0.293, 7.781e-6
0.294, 7.896e-6
0.295, 8.030e-6
0.296, 8.198e-6
0.297, 8.342e-6
0.298, 8.486e-6
0.299, 8.636e-6
0.300, 8.785e-6
0.301, 8.954e-6
0.302, 9.089e-6
0.303, 9.252e-6
0.304, 9.399e-6
0.305, 9.563e-6
0.306, 9.720e-6
0.307, 9.985e-6
0.308, 1.016e-5
0.309, 1.028e-5
0.310, 1.044e-5
0.311, 1.060e-5
0.312, 1.077e-5
0.313, 1.097e-5
0.314, 1.116e-5
0.315, 1.133e-5
0.316, 1.153e-5
0.317, 1.169e-5
0.318, 1.191e-5
0.319, 1.210e-5
0.320, 1.227e-5
0.321, 1.250e-5
0.322, 1.269e-5
0.323, 1.289e-5
0.324, 1.313e-5
0.325, 1.333e-5
0.326, 1.355e-5
0.327, 1.377e-5
0.328, 1.399e-5
0.329, 1.422e-5
0.330, 1.444e-5
0.331, 1.469e-5
0.332, 1.493e-5
0.333, 1.519e-5
0.334, 1.541e-5
0.335, 1.566e-5
0.336, 1.592e-5
0.337, 1.617e-5
0.338, 1.641e-5
0.339, 1.666e-5
0.340, 1.472e-5
0.339, 8.854e-6
0.338, 6.501e-6
0.337, 5.093e-6
0.336, 4.071e-6
0.335, 3.221e-6
0.334, 2.543e-6
0.333, 1.897e-6
0.332, 1.358e-6
0.331, 9.226e-7
0.330, 5.218e-7
0.329, 1.644e-7
0.328, -1.584e-7
0.327, -4.770e-7
0.326, -7.478e-7
0.325, -1.004e-6
0.324, -1.249e-6
0.323, -1.449e-6
0.322, -1.640e-6
0.321, -1.817e-6
0.320, -1.954e-6
0.319, -2.129e-6
0.318, -2.265e-6
0.317, -2.389e-6
0.316, -2.533e-6
0.315, -2.635e-6
0.314, -2.735e-6
0.313, -2.842e-6
0.312, -2.921e-6
0.311, -3.014e-6
0.310, -3.082e-6
0.309, -3.146e-6
0.308, -3.240e-6
0.307, -3.424e-6
0.306, -3.389e-6
0.305, -3.412e-6
0.304, -3.437e-6
0.303, -3.508e-6
0.302, -3.551e-6
0.301, -3.583e-6
0.300, -3.612e-6
0.299, -3.627e-6
0.298, -3.658e-6
0.297, -3.681e-6
0.296, -3.711e-6
0.295, -3.736e-6
0.294, -3.709e-6
0.293, -3.764e-6
0.292, -3.797e-6
0.291, -3.781e-6
0.290, -3.819e-6
0.289, -3.808e-6
0.288, -3.838e-6
0.287, -3.854e-6
0.286, -3.843e-6
0.285, -3.853e-6
0.284, -3.856e-6
0.283, -3.863e-6
0.282, -3.876e-6
0.281, -3.889e-6
0.280, -3.874e-6
0.279, -3.874e-6
0.278, -3.875e-6
0.277, -3.880e-6
0.276, -3.871e-6
0.275, -3.861e-6
0.274, -3.870e-6
0.273, -3.868e-6
0.272, -3.854e-6
0.271, -3.867e-6
0.270, -3.856e-6
0.269, -3.835e-6
0.268, -3.831e-6
0.267, -3.828e-6
0.266, -3.834e-6
0.265, -3.831e-6
0.264, -3.811e-6
0.263, -3.829e-6
0.262, -3.814e-6
0.261, -3.813e-6
0.260, -3.807e-6
0.259, -3.796e-6
0.258, -3.801e-6
0.257, -3.796e-6
0.256, -3.786e-6
0.255, -3.791e-6
0.254, -3.772e-6
0.253, -3.779e-6
0.252, -3.765e-6
0.251, -3.766e-6
0.250, -3.753e-6
0.249, -3.760e-6
0.248, -3.751e-6
0.247, -3.745e-6
0.246, -3.739e-6
0.245, -3.733e-6
0.244, -3.736e-6
0.243, -3.706e-6
0.242, -3.726e-6
0.241, -3.726e-6
0.240, -2.468e-6
0.241, 2.728e-7
0.242, 9.825e-7
0.243, 1.360e-6
0.244, 1.653e-6
0.245, 1.903e-6
0.246, 2.123e-6
0.247, 2.303e-6
0.248, 2.470e-6
0.249, 2.643e-6
0.250, 2.784e-6
0.251, 2.916e-6
0.252, 3.058e-6
0.253, 3.164e-6
0.254, 3.303e-6
0.255, 3.431e-6
0.256, 3.540e-6
0.257, 3.664e-6
0.258, 3.748e-6
0.259, 3.866e-6
0.260, 3.981e-6
0.261, 4.067e-6
0.262, 4.185e-6
0.263, 4.289e-6
0.264, 4.386e-6
0.265, 4.510e-6
0.266, 4.582e-6
0.267, 4.694e-6
0.268, 4.813e-6
0.269, 4.888e-6
0.270, 5.010e-6
0.271, 5.110e-6
0.272, 5.220e-6
0.273, 5.339e-6
0.274, 5.434e-6
0.275, 5.563e-6
0.276, 5.664e-6
0.277, 5.770e-6
0.278, 5.879e-6
0.279, 5.993e-6
0.280, 6.108e-6
0.281, 6.234e-6
0.282, 6.349e-6
0.283, 6.475e-6
0.284, 6.594e-6
0.285, 6.698e-6
0.286, 6.821e-6
0.287, 6.944e-6
0.288, 7.072e-6
0.289, 7.205e-6
0.290, 7.333e-6
0.291, 7.462e-6
0.292, 7.621e-6
0.293, 7.730e-6
0.294, 7.871e-6
0.295, 7.995e-6
0.296, 8.134e-6
0.297, 8.297e-6
0.298, 8.423e-6
0.299, 8.589e-6
0.300, 8.736e-6
0.301, 8.892e-6
0.302, 9.041e-6
0.303, 9.216e-6
0.304, 9.358e-6
0.305, 9.529e-6
0.306, 9.673e-6
0.307, 9.931e-6
0.308, 1.012e-5
0.309, 1.022e-5
0.310, 1.039e-5
0.311, 1.056e-5
0.312, 1.074e-5
0.313, 1.092e-5
0.314, 1.109e-5
0.315, 1.129e-5
0.316, 1.149e-5
0.317, 1.165e-5
0.318, 1.184e-5
0.319, 1.205e-5
0.320, 1.222e-5
0.321, 1.244e-5
0.322, 1.266e-5
0.323, 1.284e-5
0.324, 1.307e-5
0.325, 1.326e-5
0.326, 1.351e-5
0.327, 1.372e-5
0.328, 1.395e-5
0.329, 1.420e-5
0.330, 1.439e-5
0.331, 1.464e-5
0.332, 1.488e-5
0.333, 1.512e-5
0.334, 1.538e-5
0.335, 1.559e-5
0.336, 1.585e-5
0.337, 1.612e-5
0.338, 1.635e-5
0.339, 1.662e-5
0.340, 1.468e-5
0.339, 8.823e-6
0.338, 6.441e-6
0.337, 5.048e-6
0.336, 4.031e-6
0.335, 3.190e-6
0.334, 2.500e-6
0.333, 1.864e-6
0.332, 1.335e-6
0.331, 9.060e-7
0.330, 4.971e-7
0.329, 1.256e-7
0.328, -2.009e-7
0.327, -5.152e-7
0.326, -7.726e-7
0.325, -1.020e-6
0.324, -1.279e-6
0.323, -1.452e-6
0.322, -1.659e-6
0.321, -1.840e-6
0.320, -1.976e-6
0.319, -2.153e-6
0.318, -2.274e-6
0.317, -2.429e-6
0.316, -2.548e-6
0.315, -2.657e-6
0.314, -2.751e-6
0.313, -2.871e-6
0.312, -2.936e-6
0.311, -3.032e-6
0.310, -3.111e-6
0.309, -3.183e-6
0.308, -3.248e-6
0.307, -3.429e-6
0.306, -3.402e-6
0.305, -3.427e-6
0.304, -3.459e-6
0.303, -3.521e-6
0.302, -3.555e-6
0.301, -3.593e-6
0.300, -3.624e-6
0.299, -3.644e-6
0.298, -3.682e-6
0.297, -3.693e-6
0.296, -3.718e-6
0.295, -3.733e-6
0.294, -3.742e-6
0.293, -3.773e-6
0.292, -3.800e-6
0.291, -3.794e-6
0.290, -3.809e-6
0.289, -3.842e-6
0.288, -3.853e-6
0.287, -3.856e-6
0.286, -3.859e-6
0.285, -3.863e-6
0.284, -3.884e-6
0.283, -3.859e-6
0.282, -3.889e-6
0.281, -3.895e-6
0.280, -3.891e-6
0.279, -3.888e-6
0.278, -3.884e-6
0.277, -3.871e-6
0.276, -3.891e-6
0.275, -3.883e-6
0.274, -3.881e-6
0.273, -3.869e-6
0.272, -3.870e-6
0.271, -3.873e-6
0.270, -3.871e-6
0.269, -3.842e-6
0.268, -3.852e-6
0.267, -3.857e-6
0.266, -3.840e-6
0.265, -3.840e-6
0.264, -3.833e-6
0.263, -3.837e-6
0.262, -3.830e-6
0.261, -3.826e-6
0.260, -3.821e-6
0.259, -3.809e-6
0.258, -3.812e-6
0.257, -3.803e-6
0.256, -3.804e-6
0.255, -3.796e-6
0.254, -3.793e-6
0.253, -3.784e-6
0.252, -3.786e-6
0.251, -3.778e-6
0.250, -3.776e-6
0.249, -3.769e-6
0.248, -3.756e-6
0.247, -3.769e-6
0.246, -3.753e-6
0.245, -3.744e-6
0.244, -3.744e-6
0.243, -3.723e-6
0.242, -3.726e-6
0.241, -3.734e-6
0.240, -2.477e-6
0.241, 2.615e-7
0.242, 9.662e-7
0.243, 1.341e-6
0.244, 1.639e-6
0.245, 1.882e-6
0.246, 2.114e-6
0.247, 2.287e-6
0.248, 2.463e-6
0.249, 2.633e-6
0.250, 2.768e-6
0.251, 2.902e-6
0.252, 3.030e-6
0.253, 3.151e-6
0.254, 3.290e-6
0.255, 3.401e-6
0.256, 3.523e-6
0.257, 3.643e-6
0.258, 3.742e-6
0.259, 3.842e-6
0.260, 3.959e-6
0.261, 4.051e-6
0.262, 4.172e-6
0.263, 4.279e-6
0.264, 4.377e-6
0.265, 4.482e-6
0.266, 4.572e-6
0.267, 4.689e-6
0.268, 4.793e-6
0.269, 4.872e-6
0.270, 4.986e-6
0.271, 5.089e-6
0.272, 5.198e-6
0.273, 5.305e-6
0.274, 5.408e-6
0.275, 5.534e-6
0.276, 5.639e-6
0.277, 5.754e-6
0.278, 5.876e-6
0.279, 5.973e-6
0.280, 6.076e-6
0.281, 6.206e-6
0.282, 6.340e-6
0.283, 6.433e-6
0.284, 6.552e-6
0.285, 6.669e-6
0.286, 6.799e-6
0.287, 6.929e-6
0.288, 7.060e-6
0.289, 7.196e-6
0.290, 7.298e-6
0.291, 7.428e-6
0.292, 7.580e-6
0.293, 7.699e-6
0.294, 7.837e-6
0.295, 7.950e-6
0.296, 8.112e-6
0.297, 8.257e-6
0.298, 8.409e-6
0.299, 8.557e-6
0.300, 8.710e-6
0.301, 8.853e-6
0.302, 9.003e-6
0.303, 9.176e-6
0.304, 9.317e-6
0.305, 9.472e-6
0.306, 9.641e-6
0.307, 9.890e-6
0.308, 1.007e-5
0.309, 1.018e-5
0.310, 1.035e-5
0.311, 1.052e-5
0.312, 1.069e-5
0.313, 1.089e-5
0.314, 1.106e-5
0.315, 1.123e-5
0.316, 1.143e-5
0.317, 1.160e-5
0.318, 1.182e-5
0.319, 1.199e-5
0.320, 1.218e-5
0.321, 1.239e-5
0.322, 1.259e-5
0.323, 1.280e-5
0.324, 1.301e-5
0.325, 1.322e-5
0.326, 1.345e-5
0.327, 1.366e-5
0.328, 1.389e-5
0.329, 1.413e-5
0.330, 1.432e-5
0.331, 1.457e-5
0.332, 1.481e-5
0.333, 1.507e-5
0.334, 1.531e-5
0.335, 1.554e-5
0.336, 1.579e-5
0.337, 1.606e-5
0.338, 1.629e-5
0.339, 1.657e-5
0.340, 1.462e-5
0.339, 8.753e-6
0.338, 6.383e-6
0.337, 5.004e-6
0.336, 3.986e-6
0.335, 3.150e-6
0.334, 2.445e-6
0.333, 1.828e-6
0.332, 1.306e-6
0.331, 8.740e-7
0.330, 4.692e-7
0.329, 1.151e-7
0.328, -2.156e-7
0.327, -5.366e-7
0.326, -8.087e-7
0.325, -1.058e-6
0.324, -1.314e-6
0.323, -1.456e-6
0.322, -1.691e-6
0.321, -1.863e-6
0.320, -1.990e-6
0.319, -2.170e-6
0.318, -2.301e-6
0.317, -2.459e-6
0.316, -2.549e-6
0.315, -2.671e-6
0.314, -2.785e-6
0.313, -2.876e-6
0.312, -2.967e-6
0.311, -3.059e-6
0.310, -3.113e-6
0.309, -3.189e-6
0.308, -3.283e-6
0.307, -3.463e-6
0.306, -3.408e-6
0.305, -3.451e-6
0.304, -3.472e-6
0.303, -3.532e-6
0.302, -3.572e-6
0.301, -3.604e-6
0.300, -3.651e-6
0.299, -3.667e-6
0.298, -3.702e-6
0.297, -3.724e-6
0.296, -3.731e-6
0.295, -3.766e-6
0.294, -3.746e-6
0.293, -3.796e-6
0.292, -3.827e-6
0.291, -3.827e-6
0.290, -3.840e-6
0.289, -3.850e-6
0.288, -3.853e-6
0.287, -3.867e-6
0.286, -3.881e-6
0.285, -3.876e-6
0.284, -3.893e-6
0.283, -3.882e-6
0.282, -3.908e-6
0.281, -3.904e-6
0.280, -3.896e-6
0.279, -3.909e-6
0.278, -3.890e-6
0.277, -3.893e-6
0.276, -3.913e-6
0.275, -3.896e-6
0.274, -3.892e-6
0.273, -3.894e-6
0.272, -3.891e-6
0.271, -3.887e-6
0.270, -3.883e-6
0.269, -3.857e-6
0.268, -3.865e-6
0.267, -3.853e-6
0.266, -3.859e-6
0.265, -3.853e-6
0.264, -3.838e-6
0.263, -3.838e-6
0.262, -3.843e-6
0.261, -3.838e-6
0.260, -3.843e-6
0.259, -3.819e-6
0.258, -3.821e-6
0.257, -3.821e-6
0.256, -3.827e-6
0.255, -3.811e-6
0.254, -3.809e-6
0.253, -3.794e-6
0.252, -3.791e-6
0.251, -3.781e-6
0.250, -3.788e-6
0.249, -3.789e-6
0.248, -3.765e-6
0.247, -3.776e-6
0.246, -3.755e-6
0.245, -3.763e-6
0.244, -3.764e-6
0.243, -3.724e-6
0.242, -3.749e-6
0.241, -3.749e-6
0.240, -2.494e-6
0.241, 2.462e-7
0.242, 9.562e-7
0.243, 1.331e-6
0.244, 1.630e-6
0.245, 1.874e-6
0.246, 2.090e-6
0.247, 2.276e-6
0.248, 2.440e-6
0.249, 2.601e-6
0.250, 2.746e-6
0.251, 2.875e-6
0.252, 3.028e-6
0.253, 3.140e-6
0.254, 3.272e-6
0.255, 3.395e-6
0.256, 3.507e-6
0.257, 3.622e-6
0.258, 3.724e-6
0.259, 3.830e-6
0.260, 3.927e-6
0.261, 4.036e-6
0.262, 4.149e-6
0.263, 4.248e-6
0.264, 4.341e-6
0.265, 4.452e-6
0.266, 4.565e-6
0.267, 4.662e-6
0.268, 4.775e-6
0.269, 4.837e-6
0.270, 4.973e-6
0.271, 5.075e-6
0.272, 5.173e-6
0.273, 5.293e-6
0.274, 5.390e-6
0.275, 5.501e-6
0.276, 5.610e-6
0.277, 5.716e-6
0.278, 5.831e-6
0.279, 5.946e-6
0.280, 6.055e-6
0.281, 6.184e-6
0.282, 6.309e-6
0.283, 6.417e-6
0.284, 6.535e-6
0.285, 6.639e-6
0.286, 6.765e-6
0.287, 6.892e-6
0.288, 7.020e-6
0.289, 7.165e-6
0.290, 7.271e-6
0.291, 7.402e-6
0.292, 7.542e-6
0.293, 7.667e-6
0.294, 7.800e-6
0.295, 7.922e-6
0.296, 8.081e-6
0.297, 8.246e-6
0.298, 8.370e-6
0.299, 8.512e-6
0.300, 8.666e-6
0.301, 8.817e-6
0.302, 8.983e-6
0.303, 9.125e-6
0.304, 9.283e-6
0.305, 9.451e-6
0.306, 9.612e-6
0.307, 9.854e-6
0.308, 1.004e-5
0.309, 1.014e-5
0.310, 1.031e-5
0.311, 1.046e-5
0.312, 1.065e-5
0.313, 1.085e-5
0.314, 1.100e-5
0.315, 1.120e-5
0.316, 1.140e-5
0.317, 1.155e-5
0.318, 1.177e-5
0.319, 1.195e-5
0.320, 1.211e-5
0.321, 1.234e-5
0.322, 1.255e-5
0.323, 1.276e-5
0.324, 1.295e-5
0.325, 1.319e-5
0.326, 1.340e-5
0.327, 1.362e-5
0.328, 1.385e-5
0.329, 1.408e-5
0.330, 1.428e-5
0.331, 1.451e-5
0.332, 1.476e-5
0.333, 1.504e-5
0.334, 1.528e-5
0.335, 1.550e-5
0.336, 1.574e-5
0.337, 1.599e-5
0.338, 1.623e-5
0.339, 1.651e-5
0.340, 1.458e-5
0.339, 8.732e-6
0.338, 6.344e-6
0.337, 4.971e-6
0.336, 3.938e-6
0.335, 3.111e-6
0.334, 2.423e-6
0.333, 1.797e-6
0.332, 1.291e-6
0.331, 8.420e-7
0.330, 4.328e-7
0.329, 7.313e-8
0.328, -2.570e-7
0.327, -5.862e-7
0.326, -8.158e-7
0.325, -1.058e-6
0.324, -1.316e-6
0.323, -1.526e-6
0.322, -1.708e-6
0.321, -1.873e-6
0.320, -2.028e-6
0.319, -2.193e-6
0.318, -2.340e-6
0.317, -2.473e-6
0.316, -2.581e-6
0.315, -2.681e-6
0.314, -2.812e-6
0.313, -2.897e-6
0.312, -2.977e-6
0.311, -3.077e-6
0.310, -3.118e-6
0.309, -3.214e-6
0.308, -3.283e-6
0.307, -3.472e-6
0.306, -3.444e-6
0.305, -3.481e-6
0.304, -3.501e-6
0.303, -3.555e-6
0.302, -3.573e-6
0.301, -3.631e-6
0.300, -3.660e-6
0.299, -3.670e-6
0.298, -3.720e-6
0.297, -3.743e-6
0.296, -3.746e-6
0.295, -3.782e-6
0.294, -3.764e-6
0.293, -3.805e-6
0.292, -3.835e-6
0.291, -3.829e-6
0.290, -3.856e-6
0.289, -3.864e-6
0.288, -3.875e-6
0.287, -3.896e-6
0.286, -3.874e-6
0.285, -3.886e-6
0.284, -3.904e-6
0.283, -3.892e-6
0.282, -3.921e-6
0.281, -3.921e-6
0.280, -3.915e-6
0.279, -3.913e-6
0.278, -3.911e-6
0.277, -3.922e-6
0.276, -3.920e-6
0.275, -3.899e-6
0.274, -3.913e-6
0.273, -3.894e-6
0.272, -3.890e-6
0.271, -3.898e-6
0.270, -3.888e-6
0.269, -3.865e-6
0.268, -3.871e-6
0.267, -3.866e-6
0.266, -3.867e-6
0.265, -3.879e-6
0.264, -3.863e-6
0.263, -3.863e-6
0.262, -3.846e-6
0.261, -3.848e-6
0.260, -3.849e-6
0.259, -3.837e-6
0.258, -3.832e-6
0.257, -3.821e-6
0.256, -3.829e-6
0.255, -3.833e-6
0.254, -3.804e-6
0.253, -3.798e-6
0.252, -3.809e-6
0.251, -3.795e-6
0.250, -3.801e-6
0.249, -3.784e-6
0.248, -3.778e-6
0.247, -3.787e-6
0.246, -3.767e-6
0.245, -3.775e-6
0.244, -3.771e-6
0.243, -3.744e-6
0.242, -3.752e-6
0.241, -3.757e-6
