Sept. 21, 2026   17:20:21
Cyclic Voltammetry
File: d:\desktop\sample\ss310 1 cm2\ss310_sheet cv 10 mv.bin
Data Source:  Experiment
Instrument Model:  CHI660D
Header: 
Note: 

Init E (V) = 0.24
High E (V) = 0.34
Low E (V) = 0.24
Init P/N = P
Scan Rate (V/s) = 0.01
Segment = 20
Sample Interval (V) = 0.001
Quiet Time (sec) = 2
Sensitivity (A/V) = 1e-5

Results:

Channel 1:
Segment 1:

Segment 2:

Segment 3:

Segment 4:

Segment 5:

Segment 6:

Segment 7:

Segment 8:

Segment 9:

Segment 10:

Segment 11:

Segment 12:

Segment 13:

Segment 14:

Segment 15:

Segment 16:

Segment 17:

Segment 18:

Segment 19:

Segment 20:

Potential/V, Current/A

0.240, 5.545e-6
0.241, 5.943e-6
0.242, 6.097e-6
0.243, 6.194e-6
0.244, 6.278e-6
0.245, 6.353e-6
0.246, 6.426e-6
0.247, 6.495e-6
0.248, 6.568e-6
0.249, 6.634e-6
0.250, 6.703e-6
0.251, 6.774e-6
0.252, 6.843e-6
0.253, 6.908e-6
0.254, 6.981e-6
0.255, 7.051e-6
0.256, 7.128e-6
0.257, 7.197e-6
0.258, 7.266e-6
0.259, 7.335e-6
0.260, 7.414e-6
0.261, 7.482e-6
0.262, 7.559e-6
0.263, 7.633e-6
0.264, 7.712e-6
0.265, 7.785e-6
0.266, 7.859e-6
0.267, 7.935e-6
0.268, 8.013e-6
0.269, 8.078e-6
0.270, 8.164e-6
0.271, 8.241e-6
0.272, 8.313e-6
0.273, 8.400e-6
0.274, 8.476e-6
0.275, 8.551e-6
0.276, 8.636e-6
0.277, 8.710e-6
0.278, 8.791e-6
0.279, 8.873e-6
0.280, 8.947e-6
0.281, 9.034e-6
0.282, 9.116e-6
0.283, 9.190e-6
0.284, 9.270e-6
0.285, 9.346e-6
0.286, 9.427e-6
0.287, 9.506e-6
0.288, 9.585e-6
0.289, 9.669e-6
0.290, 9.741e-6
0.291, 9.815e-6
0.292, 9.897e-6
0.293, 9.972e-6
0.294, 1.004e-5
0.295, 1.012e-5
0.296, 1.020e-5
0.297, 1.027e-5
0.298, 1.034e-5
0.299, 1.042e-5
0.300, 1.050e-5
0.301, 1.057e-5
0.302, 1.065e-5
0.303, 1.072e-5
0.304, 1.078e-5
0.305, 1.086e-5
0.306, 1.093e-5
0.307, 1.104e-5
0.308, 1.111e-5
0.309, 1.117e-5
0.310, 1.123e-5
0.311, 1.130e-5
0.312, 1.136e-5
0.313, 1.143e-5
0.314, 1.150e-5
0.315, 1.157e-5
0.316, 1.165e-5
0.317, 1.171e-5
0.318, 1.177e-5
0.319, 1.185e-5
0.320, 1.190e-5
0.321, 1.198e-5
0.322, 1.205e-5
0.323, 1.212e-5
0.324, 1.219e-5
0.325, 1.226e-5
0.326, 1.233e-5
0.327, 1.241e-5
0.328, 1.248e-5
0.329, 1.256e-5
0.330, 1.262e-5
0.331, 1.269e-5
0.332, 1.277e-5
0.333, 1.285e-5
0.334, 1.294e-5
0.335, 1.300e-5
0.336, 1.307e-5
0.337, 1.316e-5
0.338, 1.324e-5
0.339, 1.333e-5
0.340, 1.239e-5
0.339, 1.006e-5
0.338, 8.861e-6
0.337, 8.101e-6
0.336, 7.519e-6
0.335, 7.042e-6
0.334, 6.635e-6
0.333, 6.264e-6
0.332, 5.955e-6
0.331, 5.684e-6
0.330, 5.432e-6
0.329, 5.204e-6
0.328, 4.993e-6
0.327, 4.802e-6
0.326, 4.618e-6
0.325, 4.448e-6
0.324, 4.301e-6
0.323, 4.165e-6
0.322, 4.023e-6
0.321, 3.895e-6
0.320, 3.789e-6
0.319, 3.667e-6
0.318, 3.569e-6
0.317, 3.471e-6
0.316, 3.376e-6
0.315, 3.287e-6
0.314, 3.205e-6
0.313, 3.125e-6
0.312, 3.051e-6
0.311, 2.978e-6
0.310, 2.913e-6
0.309, 2.847e-6
0.308, 2.788e-6
0.307, 2.687e-6
0.306, 2.654e-6
0.305, 2.609e-6
0.304, 2.567e-6
0.303, 2.513e-6
0.302, 2.470e-6
0.301, 2.425e-6
0.300, 2.381e-6
0.299, 2.346e-6
0.298, 2.305e-6
0.297, 2.257e-6
0.296, 2.226e-6
0.295, 2.192e-6
0.294, 2.166e-6
0.293, 2.126e-6
0.292, 2.094e-6
0.291, 2.065e-6
0.290, 2.032e-6
0.289, 1.997e-6
0.288, 1.967e-6
0.287, 1.940e-6
0.286, 1.914e-6
0.285, 1.885e-6
0.284, 1.861e-6
0.283, 1.834e-6
0.282, 1.805e-6
0.281, 1.776e-6
0.280, 1.754e-6
0.279, 1.733e-6
0.278, 1.711e-6
0.277, 1.687e-6
0.276, 1.668e-6
0.275, 1.643e-6
0.274, 1.615e-6
0.273, 1.597e-6
0.272, 1.575e-6
0.271, 1.552e-6
0.270, 1.533e-6
0.269, 1.517e-6
0.268, 1.492e-6
0.267, 1.470e-6
0.266, 1.447e-6
0.265, 1.427e-6
0.264, 1.409e-6
0.263, 1.383e-6
0.262, 1.359e-6
0.261, 1.342e-6
0.260, 1.321e-6
0.259, 1.303e-6
0.258, 1.285e-6
0.257, 1.260e-6
0.256, 1.242e-6
0.255, 1.224e-6
0.254, 1.206e-6
0.253, 1.183e-6
0.252, 1.166e-6
0.251, 1.146e-6
0.250, 1.126e-6
0.249, 1.109e-6
0.248, 1.088e-6
0.247, 1.069e-6
0.246, 1.051e-6
0.245, 1.032e-6
0.244, 1.017e-6
0.243, 1.005e-6
0.242, 9.770e-7
0.241, 9.582e-7
0.240, 1.397e-6
0.241, 2.233e-6
0.242, 2.547e-6
0.243, 2.730e-6
0.244, 2.873e-6
0.245, 2.996e-6
0.246, 3.110e-6
0.247, 3.216e-6
0.248, 3.311e-6
0.249, 3.411e-6
0.250, 3.502e-6
0.251, 3.589e-6
0.252, 3.677e-6
0.253, 3.756e-6
0.254, 3.843e-6
0.255, 3.927e-6
0.256, 4.012e-6
0.257, 4.090e-6
0.258, 4.169e-6
0.259, 4.245e-6
0.260, 4.326e-6
0.261, 4.404e-6
0.262, 4.482e-6
0.263, 4.564e-6
0.264, 4.639e-6
0.265, 4.720e-6
0.266, 4.794e-6
0.267, 4.875e-6
0.268, 4.954e-6
0.269, 5.025e-6
0.270, 5.109e-6
0.271, 5.187e-6
0.272, 5.262e-6
0.273, 5.346e-6
0.274, 5.420e-6
0.275, 5.508e-6
0.276, 5.586e-6
0.277, 5.659e-6
0.278, 5.742e-6
0.279, 5.819e-6
0.280, 5.898e-6
0.281, 5.982e-6
0.282, 6.065e-6
0.283, 6.139e-6
0.284, 6.219e-6
0.285, 6.299e-6
0.286, 6.379e-6
0.287, 6.458e-6
0.288, 6.537e-6
0.289, 6.628e-6
0.290, 6.702e-6
0.291, 6.779e-6
0.292, 6.862e-6
0.293, 6.945e-6
0.294, 7.022e-6
0.295, 7.098e-6
0.296, 7.179e-6
0.297, 7.266e-6
0.298, 7.342e-6
0.299, 7.425e-6
0.300, 7.510e-6
0.301, 7.591e-6
0.302, 7.671e-6
0.303, 7.749e-6
0.304, 7.823e-6
0.305, 7.909e-6
0.306, 7.991e-6
0.307, 8.106e-6
0.308, 8.190e-6
0.309, 8.255e-6
0.310, 8.337e-6
0.311, 8.412e-6
0.312, 8.487e-6
0.313, 8.573e-6
0.314, 8.656e-6
0.315, 8.737e-6
0.316, 8.830e-6
0.317, 8.900e-6
0.318, 8.987e-6
0.319, 9.076e-6
0.320, 9.146e-6
0.321, 9.236e-6
0.322, 9.324e-6
0.323, 9.412e-6
0.324, 9.499e-6
0.325, 9.578e-6
0.326, 9.670e-6
0.327, 9.760e-6
0.328, 9.845e-6
0.329, 9.943e-6
0.330, 1.003e-5
0.331, 1.012e-5
0.332, 1.021e-5
0.333, 1.033e-5
0.334, 1.041e-5
0.335, 1.050e-5
0.336, 1.059e-5
0.337, 1.068e-5
0.338, 1.078e-5
0.339, 1.088e-5
0.340, 9.990e-6
0.339, 7.765e-6
0.338, 6.639e-6
0.337, 5.945e-6
0.336, 5.445e-6
0.335, 5.019e-6
0.334, 4.673e-6
0.333, 4.360e-6
0.332, 4.087e-6
0.331, 3.862e-6
0.330, 3.656e-6
0.329, 3.462e-6
0.328, 3.297e-6
0.327, 3.136e-6
0.326, 2.992e-6
0.325, 2.855e-6
0.324, 2.729e-6
0.323, 2.630e-6
0.322, 2.523e-6
0.321, 2.419e-6
0.320, 2.341e-6
0.319, 2.253e-6
0.318, 2.171e-6
0.317, 2.104e-6
0.316, 2.030e-6
0.315, 1.975e-6
0.314, 1.909e-6
0.313, 1.848e-6
0.312, 1.804e-6
0.311, 1.749e-6
0.310, 1.706e-6
0.309, 1.651e-6
0.308, 1.609e-6
0.307, 1.527e-6
0.306, 1.525e-6
0.305, 1.494e-6
0.304, 1.467e-6
0.303, 1.431e-6
0.302, 1.407e-6
0.301, 1.375e-6
0.300, 1.347e-6
0.299, 1.333e-6
0.298, 1.305e-6
0.297, 1.277e-6
0.296, 1.259e-6
0.295, 1.238e-6
0.294, 1.228e-6
0.293, 1.200e-6
0.292, 1.176e-6
0.291, 1.171e-6
0.290, 1.149e-6
0.289, 1.127e-6
0.288, 1.114e-6
0.287, 1.096e-6
0.286, 1.086e-6
0.285, 1.074e-6
0.284, 1.050e-6
0.283, 1.041e-6
0.282, 1.021e-6
0.281, 1.005e-6
0.280, 1.001e-6
0.279, 9.869e-7
0.278, 9.731e-7
0.277, 9.649e-7
0.276, 9.517e-7
0.275, 9.401e-7
0.274, 9.287e-7
0.273, 9.135e-7
0.272, 9.052e-7
0.271, 8.942e-7
0.270, 8.857e-7
0.269, 8.743e-7
0.268, 8.591e-7
0.267, 8.506e-7
0.266, 8.406e-7
0.265, 8.247e-7
0.264, 8.203e-7
0.263, 8.042e-7
0.262, 7.903e-7
0.261, 7.805e-7
0.260, 7.659e-7
0.259, 7.618e-7
0.258, 7.510e-7
0.257, 7.362e-7
0.256, 7.207e-7
0.255, 7.084e-7
0.254, 7.027e-7
0.253, 6.924e-7
0.252, 6.791e-7
0.251, 6.664e-7
0.250, 6.562e-7
0.249, 6.417e-7
0.248, 6.319e-7
0.247, 6.186e-7
0.246, 6.077e-7
0.245, 5.947e-7
0.244, 5.838e-7
0.243, 5.796e-7
0.242, 5.631e-7
0.241, 5.475e-7
0.240, 9.884e-7
0.241, 1.820e-6
0.242, 2.127e-6
0.243, 2.300e-6
0.244, 2.444e-6
0.245, 2.563e-6
0.246, 2.671e-6
0.247, 2.768e-6
0.248, 2.861e-6
0.249, 2.950e-6
0.250, 3.036e-6
0.251, 3.121e-6
0.252, 3.204e-6
0.253, 3.278e-6
0.254, 3.361e-6
0.255, 3.438e-6
0.256, 3.515e-6
0.257, 3.592e-6
0.258, 3.663e-6
0.259, 3.738e-6
0.260, 3.811e-6
0.261, 3.884e-6
0.262, 3.960e-6
0.263, 4.031e-6
0.264, 4.104e-6
0.265, 4.181e-6
0.266, 4.250e-6
0.267, 4.324e-6
0.268, 4.399e-6
0.269, 4.459e-6
0.270, 4.537e-6
0.271, 4.618e-6
0.272, 4.683e-6
0.273, 4.761e-6
0.274, 4.834e-6
0.275, 4.907e-6
0.276, 4.979e-6
0.277, 5.056e-6
0.278, 5.130e-6
0.279, 5.207e-6
0.280, 5.279e-6
0.281, 5.359e-6
0.282, 5.434e-6
0.283, 5.508e-6
0.284, 5.580e-6
0.285, 5.653e-6
0.286, 5.726e-6
0.287, 5.806e-6
0.288, 5.883e-6
0.289, 5.960e-6
0.290, 6.032e-6
0.291, 6.109e-6
0.292, 6.184e-6
0.293, 6.260e-6
0.294, 6.333e-6
0.295, 6.404e-6
0.296, 6.490e-6
0.297, 6.567e-6
0.298, 6.642e-6
0.299, 6.717e-6
0.300, 6.798e-6
0.301, 6.877e-6
0.302, 6.957e-6
0.303, 7.035e-6
0.304, 7.102e-6
0.305, 7.187e-6
0.306, 7.266e-6
0.307, 7.377e-6
0.308, 7.460e-6
0.309, 7.515e-6
0.310, 7.596e-6
0.311, 7.672e-6
0.312, 7.751e-6
0.313, 7.830e-6
0.314, 7.910e-6
0.315, 7.997e-6
0.316, 8.077e-6
0.317, 8.154e-6
0.318, 8.239e-6
0.319, 8.322e-6
0.320, 8.386e-6
0.321, 8.484e-6
0.322, 8.569e-6
0.323, 8.648e-6
0.324, 8.742e-6
0.325, 8.820e-6
0.326, 8.911e-6
0.327, 9.003e-6
0.328, 9.083e-6
0.329, 9.179e-6
0.330, 9.261e-6
0.331, 9.356e-6
0.332, 9.452e-6
0.333, 9.544e-6
0.334, 9.630e-6
0.335, 9.724e-6
0.336, 9.816e-6
0.337, 9.922e-6
0.338, 1.001e-5
0.339, 1.011e-5
0.340, 9.222e-6
0.339, 7.039e-6
0.338, 5.946e-6
0.337, 5.272e-6
0.336, 4.789e-6
0.335, 4.383e-6
0.334, 4.054e-6
0.333, 3.760e-6
0.332, 3.494e-6
0.331, 3.281e-6
0.330, 3.082e-6
0.329, 2.903e-6
0.328, 2.743e-6
0.327, 2.589e-6
0.326, 2.457e-6
0.325, 2.328e-6
0.324, 2.218e-6
0.323, 2.115e-6
0.322, 2.021e-6
0.321, 1.933e-6
0.320, 1.864e-6
0.319, 1.768e-6
0.318, 1.702e-6
0.317, 1.637e-6
0.316, 1.574e-6
0.315, 1.520e-6
0.314, 1.462e-6
0.313, 1.411e-6
0.312, 1.368e-6
0.311, 1.320e-6
0.310, 1.278e-6
0.309, 1.244e-6
0.308, 1.203e-6
0.307, 1.122e-6
0.306, 1.121e-6
0.305, 1.098e-6
0.304, 1.078e-6
0.303, 1.049e-6
0.302, 1.027e-6
0.301, 1.003e-6
0.300, 9.768e-7
0.299, 9.639e-7
0.298, 9.423e-7
0.297, 9.207e-7
0.296, 9.064e-7
0.295, 8.887e-7
0.294, 8.827e-7
0.293, 8.627e-7
0.292, 8.465e-7
0.291, 8.340e-7
0.290, 8.202e-7
0.289, 8.018e-7
0.288, 7.912e-7
0.287, 7.780e-7
0.286, 7.703e-7
0.285, 7.551e-7
0.284, 7.439e-7
0.283, 7.399e-7
0.282, 7.223e-7
0.281, 7.094e-7
0.280, 7.084e-7
0.279, 6.981e-7
0.278, 6.891e-7
0.277, 6.787e-7
0.276, 6.715e-7
0.275, 6.644e-7
0.274, 6.531e-7
0.273, 6.443e-7
0.272, 6.423e-7
0.271, 6.321e-7
0.270, 6.256e-7
0.269, 6.184e-7
0.268, 6.117e-7
0.267, 6.016e-7
0.266, 5.964e-7
0.265, 5.822e-7
0.264, 5.763e-7
0.263, 5.645e-7
0.262, 5.606e-7
0.261, 5.512e-7
0.260, 5.405e-7
0.259, 5.375e-7
0.258, 5.255e-7
0.257, 5.111e-7
0.256, 5.070e-7
0.255, 4.941e-7
0.254, 4.868e-7
0.253, 4.790e-7
0.252, 4.730e-7
0.251, 4.612e-7
0.250, 4.520e-7
0.249, 4.381e-7
0.248, 4.394e-7
0.247, 4.234e-7
0.246, 4.185e-7
0.245, 4.086e-7
0.244, 3.963e-7
0.243, 3.955e-7
0.242, 3.787e-7
0.241, 3.663e-7
0.240, 8.079e-7
0.241, 1.634e-6
0.242, 1.942e-6
0.243, 2.111e-6
0.244, 2.246e-6
0.245, 2.359e-6
0.246, 2.465e-6
0.247, 2.564e-6
0.248, 2.653e-6
0.249, 2.742e-6
0.250, 2.822e-6
0.251, 2.902e-6
0.252, 2.985e-6
0.253, 3.056e-6
0.254, 3.133e-6
0.255, 3.212e-6
0.256, 3.284e-6
0.257, 3.358e-6
0.258, 3.426e-6
0.259, 3.496e-6
0.260, 3.567e-6
0.261, 3.638e-6
0.262, 3.708e-6
0.263, 3.780e-6
0.264, 3.848e-6
0.265, 3.924e-6
0.266, 3.985e-6
0.267, 4.060e-6
0.268, 4.132e-6
0.269, 4.189e-6
0.270, 4.267e-6
0.271, 4.340e-6
0.272, 4.404e-6
0.273, 4.477e-6
0.274, 4.544e-6
0.275, 4.616e-6
0.276, 4.692e-6
0.277, 4.757e-6
0.278, 4.830e-6
0.279, 4.904e-6
0.280, 4.976e-6
0.281, 5.050e-6
0.282, 5.122e-6
0.283, 5.191e-6
0.284, 5.269e-6
0.285, 5.328e-6
0.286, 5.406e-6
0.287, 5.484e-6
0.288, 5.553e-6
0.289, 5.629e-6
0.290, 5.701e-6
0.291, 5.773e-6
0.292, 5.850e-6
0.293, 5.918e-6
0.294, 5.987e-6
0.295, 6.063e-6
0.296, 6.133e-6
0.297, 6.212e-6
0.298, 6.289e-6
0.299, 6.365e-6
0.300, 6.441e-6
0.301, 6.512e-6
0.302, 6.591e-6
0.303, 6.667e-6
0.304, 6.735e-6
0.305, 6.816e-6
0.306, 6.889e-6
0.307, 7.003e-6
0.308, 7.081e-6
0.309, 7.139e-6
0.310, 7.216e-6
0.311, 7.295e-6
0.312, 7.366e-6
0.313, 7.446e-6
0.314, 7.528e-6
0.315, 7.606e-6
0.316, 7.689e-6
0.317, 7.764e-6
0.318, 7.850e-6
0.319, 7.933e-6
0.320, 7.999e-6
0.321, 8.087e-6
0.322, 8.165e-6
0.323, 8.253e-6
0.324, 8.342e-6
0.325, 8.422e-6
0.326, 8.505e-6
0.327, 8.595e-6
0.328, 8.677e-6
0.329, 8.776e-6
0.330, 8.853e-6
0.331, 8.947e-6
0.332, 9.039e-6
0.333, 9.139e-6
0.334, 9.221e-6
0.335, 9.315e-6
0.336, 9.398e-6
0.337, 9.505e-6
0.338, 9.592e-6
0.339, 9.689e-6
0.340, 8.814e-6
0.339, 6.643e-6
0.338, 5.573e-6
0.337, 4.914e-6
0.336, 4.435e-6
0.335, 4.051e-6
0.334, 3.718e-6
0.333, 3.427e-6
0.332, 3.173e-6
0.331, 2.967e-6
0.330, 2.770e-6
0.329, 2.601e-6
0.328, 2.450e-6
0.327, 2.304e-6
0.326, 2.175e-6
0.325, 2.054e-6
0.324, 1.942e-6
0.323, 1.847e-6
0.322, 1.749e-6
0.321, 1.660e-6
0.320, 1.601e-6
0.319, 1.518e-6
0.318, 1.451e-6
0.317, 1.389e-6
0.316, 1.326e-6
0.315, 1.275e-6
0.314, 1.222e-6
0.313, 1.169e-6
0.312, 1.135e-6
0.311, 1.088e-6
0.310, 1.051e-6
0.309, 1.018e-6
0.308, 9.771e-7
0.307, 9.039e-7
0.306, 8.995e-7
0.305, 8.793e-7
0.304, 8.601e-7
0.303, 8.369e-7
0.302, 8.169e-7
0.301, 7.886e-7
0.300, 7.730e-7
0.299, 7.564e-7
0.298, 7.443e-7
0.297, 7.190e-7
0.296, 7.067e-7
0.295, 6.961e-7
0.294, 6.896e-7
0.293, 6.649e-7
0.292, 6.548e-7
0.291, 6.463e-7
0.290, 6.268e-7
0.289, 6.179e-7
0.288, 6.114e-7
0.287, 5.986e-7
0.286, 5.901e-7
0.285, 5.850e-7
0.284, 5.730e-7
0.283, 5.670e-7
0.282, 5.527e-7
0.281, 5.430e-7
0.280, 5.402e-7
0.279, 5.306e-7
0.278, 5.287e-7
0.277, 5.171e-7
0.276, 5.116e-7
0.275, 5.056e-7
0.274, 4.988e-7
0.273, 4.888e-7
0.272, 4.904e-7
0.271, 4.787e-7
0.270, 4.729e-7
0.269, 4.733e-7
0.268, 4.591e-7
0.267, 4.581e-7
0.266, 4.480e-7
0.265, 4.397e-7
0.264, 4.361e-7
0.263, 4.246e-7
0.262, 4.224e-7
0.261, 4.162e-7
0.260, 4.087e-7
0.259, 4.029e-7
0.258, 3.918e-7
0.257, 3.854e-7
0.256, 3.771e-7
0.255, 3.728e-7
0.254, 3.681e-7
0.253, 3.558e-7
0.252, 3.469e-7
0.251, 3.408e-7
0.250, 3.381e-7
0.249, 3.263e-7
0.248, 3.189e-7
0.247, 3.103e-7
0.246, 3.032e-7
0.245, 2.936e-7
0.244, 2.848e-7
0.243, 2.882e-7
0.242, 2.696e-7
0.241, 2.591e-7
0.240, 7.030e-7
0.241, 1.521e-6
0.242, 1.820e-6
0.243, 1.994e-6
0.244, 2.125e-6
0.245, 2.240e-6
0.246, 2.341e-6
0.247, 2.437e-6
0.248, 2.522e-6
0.249, 2.611e-6
0.250, 2.690e-6
0.251, 2.766e-6
0.252, 2.849e-6
0.253, 2.918e-6
0.254, 2.993e-6
0.255, 3.065e-6
0.256, 3.140e-6
0.257, 3.212e-6
0.258, 3.277e-6
0.259, 3.343e-6
0.260, 3.415e-6
0.261, 3.483e-6
0.262, 3.550e-6
0.263, 3.619e-6
0.264, 3.686e-6
0.265, 3.753e-6
0.266, 3.820e-6
0.267, 3.885e-6
0.268, 3.961e-6
0.269, 4.015e-6
0.270, 4.090e-6
0.271, 4.164e-6
0.272, 4.223e-6
0.273, 4.296e-6
0.274, 4.358e-6
0.275, 4.432e-6
0.276, 4.508e-6
0.277, 4.567e-6
0.278, 4.638e-6
0.279, 4.709e-6
0.280, 4.777e-6
0.281, 4.852e-6
0.282, 4.922e-6
0.283, 4.989e-6
0.284, 5.063e-6
0.285, 5.126e-6
0.286, 5.201e-6
0.287, 5.274e-6
0.288, 5.341e-6
0.289, 5.410e-6
0.290, 5.481e-6
0.291, 5.552e-6
0.292, 5.630e-6
0.293, 5.696e-6
0.294, 5.769e-6
0.295, 5.837e-6
0.296, 5.911e-6
0.297, 5.985e-6
0.298, 6.052e-6
0.299, 6.125e-6
0.300, 6.202e-6
0.301, 6.282e-6
0.302, 6.355e-6
0.303, 6.424e-6
0.304, 6.501e-6
0.305, 6.575e-6
0.306, 6.648e-6
0.307, 6.755e-6
0.308, 6.841e-6
0.309, 6.899e-6
0.310, 6.970e-6
0.311, 7.048e-6
0.312, 7.119e-6
0.313, 7.191e-6
0.314, 7.270e-6
0.315, 7.346e-6
0.316, 7.426e-6
0.317, 7.501e-6
0.318, 7.586e-6
0.319, 7.669e-6
0.320, 7.740e-6
0.321, 7.826e-6
0.322, 7.905e-6
0.323, 7.986e-6
0.324, 8.076e-6
0.325, 8.155e-6
0.326, 8.248e-6
0.327, 8.329e-6
0.328, 8.411e-6
0.329, 8.507e-6
0.330, 8.584e-6
0.331, 8.677e-6
0.332, 8.771e-6
0.333, 8.864e-6
0.334, 8.950e-6
0.335, 9.042e-6
0.336, 9.126e-6
0.337, 9.223e-6
0.338, 9.314e-6
0.339, 9.404e-6
0.340, 8.537e-6
0.339, 6.396e-6
0.338, 5.326e-6
0.337, 4.677e-6
0.336, 4.203e-6
0.335, 3.822e-6
0.334, 3.498e-6
0.333, 3.213e-6
0.332, 2.969e-6
0.331, 2.764e-6
0.330, 2.577e-6
0.329, 2.405e-6
0.328, 2.255e-6
0.327, 2.111e-6
0.326, 1.981e-6
0.325, 1.870e-6
0.324, 1.763e-6
0.323, 1.673e-6
0.322, 1.578e-6
0.321, 1.489e-6
0.320, 1.425e-6
0.319, 1.350e-6
0.318, 1.287e-6
0.317, 1.223e-6
0.316, 1.164e-6
0.315, 1.115e-6
0.314, 1.065e-6
0.313, 1.013e-6
0.312, 9.736e-7
0.311, 9.308e-7
0.310, 9.043e-7
0.309, 8.647e-7
0.308, 8.319e-7
0.307, 7.597e-7
0.306, 7.558e-7
0.305, 7.318e-7
0.304, 7.222e-7
0.303, 6.973e-7
0.302, 6.803e-7
0.301, 6.544e-7
0.300, 6.343e-7
0.299, 6.247e-7
0.298, 6.086e-7
0.297, 5.934e-7
0.296, 5.816e-7
0.295, 5.623e-7
0.294, 5.588e-7
0.293, 5.401e-7
0.292, 5.250e-7
0.291, 5.216e-7
0.290, 5.113e-7
0.289, 4.902e-7
0.288, 4.921e-7
0.287, 4.759e-7
0.286, 4.730e-7
0.285, 4.670e-7
0.284, 4.574e-7
0.283, 4.505e-7
0.282, 4.355e-7
0.281, 4.285e-7
0.280, 4.273e-7
0.279, 4.222e-7
0.278, 4.165e-7
0.277, 4.132e-7
0.276, 4.057e-7
0.275, 3.947e-7
0.274, 3.870e-7
0.273, 3.868e-7
0.272, 3.851e-7
0.271, 3.760e-7
0.270, 3.684e-7
0.269, 3.708e-7
0.268, 3.617e-7
0.267, 3.553e-7
0.266, 3.515e-7
0.265, 3.442e-7
0.264, 3.400e-7
0.263, 3.283e-7
0.262, 3.286e-7
0.261, 3.201e-7
0.260, 3.155e-7
0.259, 3.117e-7
0.258, 3.028e-7
0.257, 2.954e-7
0.256, 2.901e-7
0.255, 2.808e-7
0.254, 2.785e-7
0.253, 2.728e-7
0.252, 2.655e-7
0.251, 2.597e-7
0.250, 2.502e-7
0.249, 2.430e-7
0.248, 2.385e-7
0.247, 2.319e-7
0.246, 2.254e-7
0.245, 2.174e-7
0.244, 2.054e-7
0.243, 2.084e-7
0.242, 1.948e-7
0.241, 1.850e-7
0.240, 6.287e-7
0.241, 1.445e-6
0.242, 1.739e-6
0.243, 1.908e-6
0.244, 2.036e-6
0.245, 2.148e-6
0.246, 2.252e-6
0.247, 2.347e-6
0.248, 2.430e-6
0.249, 2.516e-6
0.250, 2.591e-6
0.251, 2.670e-6
0.252, 2.744e-6
0.253, 2.818e-6
0.254, 2.889e-6
0.255, 2.960e-6
0.256, 3.031e-6
0.257, 3.100e-6
0.258, 3.167e-6
0.259, 3.238e-6
0.260, 3.300e-6
0.261, 3.365e-6
0.262, 3.434e-6
0.263, 3.503e-6
0.264, 3.564e-6
0.265, 3.635e-6
0.266, 3.695e-6
0.267, 3.763e-6
0.268, 3.829e-6
0.269, 3.891e-6
0.270, 3.961e-6
0.271, 4.026e-6
0.272, 4.090e-6
0.273, 4.161e-6
0.274, 4.229e-6
0.275, 4.295e-6
0.276, 4.364e-6
0.277, 4.428e-6
0.278, 4.493e-6
0.279, 4.561e-6
0.280, 4.629e-6
0.281, 4.702e-6
0.282, 4.778e-6
0.283, 4.841e-6
0.284, 4.907e-6
0.285, 4.969e-6
0.286, 5.044e-6
0.287, 5.116e-6
0.288, 5.182e-6
0.289, 5.255e-6
0.290, 5.320e-6
0.291, 5.390e-6
0.292, 5.462e-6
0.293, 5.529e-6
0.294, 5.597e-6
0.295, 5.666e-6
0.296, 5.737e-6
0.297, 5.819e-6
0.298, 5.880e-6
0.299, 5.954e-6
0.300, 6.031e-6
0.301, 6.098e-6
0.302, 6.178e-6
0.303, 6.248e-6
0.304, 6.317e-6
0.305, 6.395e-6
0.306, 6.465e-6
0.307, 6.576e-6
0.308, 6.652e-6
0.309, 6.706e-6
0.310, 6.780e-6
0.311, 6.854e-6
0.312, 6.923e-6
0.313, 7.008e-6
0.314, 7.077e-6
0.315, 7.153e-6
0.316, 7.242e-6
0.317, 7.312e-6
0.318, 7.391e-6
0.319, 7.476e-6
0.320, 7.540e-6
0.321, 7.625e-6
0.322, 7.703e-6
0.323, 7.784e-6
0.324, 7.868e-6
0.325, 7.953e-6
0.326, 8.042e-6
0.327, 8.132e-6
0.328, 8.212e-6
0.329, 8.297e-6
0.330, 8.379e-6
0.331, 8.460e-6
0.332, 8.556e-6
0.333, 8.654e-6
0.334, 8.739e-6
0.335, 8.830e-6
0.336, 8.912e-6
0.337, 9.009e-6
0.338, 9.101e-6
0.339, 9.196e-6
0.340, 8.326e-6
0.339, 6.199e-6
0.338, 5.143e-6
0.337, 4.497e-6
0.336, 4.031e-6
0.335, 3.654e-6
0.334, 3.341e-6
0.333, 3.049e-6
0.332, 2.815e-6
0.331, 2.619e-6
0.330, 2.424e-6
0.329, 2.255e-6
0.328, 2.108e-6
0.327, 1.967e-6
0.326, 1.838e-6
0.325, 1.728e-6
0.324, 1.624e-6
0.323, 1.531e-6
0.322, 1.440e-6
0.321, 1.357e-6
0.320, 1.303e-6
0.319, 1.224e-6
0.318, 1.158e-6
0.317, 1.101e-6
0.316, 1.042e-6
0.315, 9.922e-7
0.314, 9.456e-7
0.313, 8.977e-7
0.312, 8.581e-7
0.311, 8.226e-7
0.310, 7.939e-7
0.309, 7.589e-7
0.308, 7.160e-7
0.307, 6.473e-7
0.306, 6.462e-7
0.305, 6.322e-7
0.304, 6.114e-7
0.303, 5.892e-7
0.302, 5.707e-7
0.301, 5.500e-7
0.300, 5.367e-7
0.299, 5.202e-7
0.298, 5.053e-7
0.297, 4.882e-7
0.296, 4.774e-7
0.295, 4.649e-7
0.294, 4.643e-7
0.293, 4.475e-7
0.292, 4.307e-7
0.291, 4.259e-7
0.290, 4.142e-7
0.289, 4.012e-7
0.288, 3.993e-7
0.287, 3.839e-7
0.286, 3.791e-7
0.285, 3.776e-7
0.284, 3.721e-7
0.283, 3.623e-7
0.282, 3.509e-7
0.281, 3.430e-7
0.280, 3.443e-7
0.279, 3.388e-7
0.278, 3.300e-7
0.277, 3.251e-7
0.276, 3.203e-7
0.275, 3.158e-7
0.274, 3.119e-7
0.273, 3.024e-7
0.272, 3.027e-7
0.271, 2.945e-7
0.270, 2.936e-7
0.269, 2.934e-7
0.268, 2.882e-7
0.267, 2.805e-7
0.266, 2.776e-7
0.265, 2.662e-7
0.264, 2.632e-7
0.263, 2.576e-7
0.262, 2.531e-7
0.261, 2.477e-7
0.260, 2.388e-7
0.259, 2.399e-7
0.258, 2.345e-7
0.257, 2.284e-7
0.256, 2.195e-7
0.255, 2.162e-7
0.254, 2.109e-7
0.253, 2.026e-7
0.252, 1.995e-7
0.251, 1.971e-7
0.250, 1.850e-7
0.249, 1.787e-7
0.248, 1.773e-7
0.247, 1.699e-7
0.246, 1.636e-7
0.245, 1.583e-7
0.244, 1.494e-7
0.243, 1.469e-7
0.242, 1.384e-7
0.241, 1.299e-7
0.240, 5.672e-7
0.241, 1.377e-6
0.242, 1.676e-6
0.243, 1.838e-6
0.244, 1.972e-6
0.245, 2.082e-6
0.246, 2.180e-6
0.247, 2.272e-6
0.248, 2.355e-6
0.249, 2.442e-6
0.250, 2.519e-6
0.251, 2.594e-6
0.252, 2.669e-6
0.253, 2.735e-6
0.254, 2.807e-6
0.255, 2.877e-6
0.256, 2.944e-6
0.257, 3.016e-6
0.258, 3.081e-6
0.259, 3.146e-6
0.260, 3.208e-6
0.261, 3.275e-6
0.262, 3.342e-6
0.263, 3.406e-6
0.264, 3.468e-6
0.265, 3.538e-6
0.266, 3.599e-6
0.267, 3.666e-6
0.268, 3.736e-6
0.269, 3.783e-6
0.270, 3.851e-6
0.271, 3.923e-6
0.272, 3.985e-6
0.273, 4.052e-6
0.274, 4.120e-6
0.275, 4.186e-6
0.276, 4.253e-6
0.277, 4.314e-6
0.278, 4.385e-6
0.279, 4.452e-6
0.280, 4.519e-6
0.281, 4.579e-6
0.282, 4.653e-6
0.283, 4.717e-6
0.284, 4.783e-6
0.285, 4.847e-6
0.286, 4.918e-6
0.287, 4.987e-6
0.288, 5.052e-6
0.289, 5.127e-6
0.290, 5.191e-6
0.291, 5.257e-6
0.292, 5.331e-6
0.293, 5.400e-6
0.294, 5.465e-6
0.295, 5.535e-6
0.296, 5.605e-6
0.297, 5.677e-6
0.298, 5.747e-6
0.299, 5.820e-6
0.300, 5.888e-6
0.301, 5.959e-6
0.302, 6.031e-6
0.303, 6.109e-6
0.304, 6.175e-6
0.305, 6.250e-6
0.306, 6.320e-6
0.307, 6.429e-6
0.308, 6.501e-6
0.309, 6.556e-6
0.310, 6.627e-6
0.311, 6.700e-6
0.312, 6.777e-6
0.313, 6.855e-6
0.314, 6.926e-6
0.315, 7.003e-6
0.316, 7.079e-6
0.317, 7.152e-6
0.318, 7.234e-6
0.319, 7.314e-6
0.320, 7.381e-6
0.321, 7.470e-6
0.322, 7.549e-6
0.323, 7.627e-6
0.324, 7.718e-6
0.325, 7.790e-6
0.326, 7.876e-6
0.327, 7.965e-6
0.328, 8.048e-6
0.329, 8.135e-6
0.330, 8.208e-6
0.331, 8.301e-6
0.332, 8.390e-6
0.333, 8.490e-6
0.334, 8.574e-6
0.335, 8.655e-6
0.336, 8.750e-6
0.337, 8.839e-6
0.338, 8.918e-6
0.339, 9.016e-6
0.340, 8.166e-6
0.339, 6.049e-6
0.338, 4.990e-6
0.337, 4.363e-6
0.336, 3.902e-6
0.335, 3.515e-6
0.334, 3.203e-6
0.333, 2.922e-6
0.332, 2.694e-6
0.331, 2.499e-6
0.330, 2.314e-6
0.329, 2.143e-6
0.328, 1.996e-6
0.327, 1.849e-6
0.326, 1.732e-6
0.325, 1.620e-6
0.324, 1.519e-6
0.323, 1.430e-6
0.322, 1.342e-6
0.321, 1.257e-6
0.320, 1.199e-6
0.319, 1.126e-6
0.318, 1.058e-6
0.317, 1.004e-6
0.316, 9.482e-7
0.315, 8.986e-7
0.314, 8.500e-7
0.313, 8.047e-7
0.312, 7.694e-7
0.311, 7.284e-7
0.310, 6.929e-7
0.309, 6.588e-7
0.308, 6.336e-7
0.307, 5.611e-7
0.306, 5.630e-7
0.305, 5.444e-7
0.304, 5.283e-7
0.303, 5.045e-7
0.302, 4.914e-7
0.301, 4.736e-7
0.300, 4.538e-7
0.299, 4.417e-7
0.298, 4.295e-7
0.297, 4.123e-7
0.296, 4.005e-7
0.295, 3.870e-7
0.294, 3.810e-7
0.293, 3.711e-7
0.292, 3.586e-7
0.291, 3.517e-7
0.290, 3.409e-7
0.289, 3.309e-7
0.288, 3.206e-7
0.287, 3.146e-7
0.286, 3.076e-7
0.285, 3.043e-7
0.284, 2.926e-7
0.283, 2.953e-7
0.282, 2.849e-7
0.281, 2.749e-7
0.280, 2.729e-7
0.279, 2.655e-7
0.278, 2.657e-7
0.277, 2.622e-7
0.276, 2.545e-7
0.275, 2.486e-7
0.274, 2.434e-7
0.273, 2.412e-7
0.272, 2.400e-7
0.271, 2.334e-7
0.270, 2.328e-7
0.269, 2.355e-7
0.268, 2.239e-7
0.267, 2.236e-7
0.266, 2.173e-7
0.265, 2.119e-7
0.264, 2.084e-7
0.263, 1.969e-7
0.262, 1.994e-7
0.261, 1.933e-7
0.260, 1.880e-7
0.259, 1.848e-7
0.258, 1.773e-7
0.257, 1.736e-7
0.256, 1.663e-7
0.255, 1.627e-7
0.254, 1.591e-7
0.253, 1.534e-7
0.252, 1.455e-7
0.251, 1.424e-7
0.250, 1.379e-7
0.249, 1.278e-7
0.248, 1.280e-7
0.247, 1.200e-7
0.246, 1.138e-7
0.245, 1.076e-7
0.244, 1.028e-7
0.243, 1.015e-7
0.242, 8.736e-8
0.241, 8.056e-8
0.240, 5.181e-7
0.241, 1.330e-6
0.242, 1.623e-6
0.243, 1.784e-6
0.244, 1.913e-6
0.245, 2.021e-6
0.246, 2.124e-6
0.247, 2.213e-6
0.248, 2.295e-6
0.249, 2.379e-6
0.250, 2.452e-6
0.251, 2.529e-6
0.252, 2.602e-6
0.253, 2.669e-6
0.254, 2.739e-6
0.255, 2.809e-6
0.256, 2.875e-6
0.257, 2.942e-6
0.258, 3.006e-6
0.259, 3.070e-6
0.260, 3.137e-6
0.261, 3.198e-6
0.262, 3.267e-6
0.263, 3.330e-6
0.264, 3.388e-6
0.265, 3.458e-6
0.266, 3.518e-6
0.267, 3.582e-6
0.268, 3.647e-6
0.269, 3.699e-6
0.270, 3.770e-6
0.271, 3.837e-6
0.272, 3.900e-6
0.273, 3.966e-6
0.274, 4.030e-6
0.275, 4.092e-6
0.276, 4.160e-6
0.277, 4.221e-6
0.278, 4.285e-6
0.279, 4.352e-6
0.280, 4.415e-6
0.281, 4.487e-6
0.282, 4.557e-6
0.283, 4.616e-6
0.284, 4.686e-6
0.285, 4.744e-6
0.286, 4.815e-6
0.287, 4.885e-6
0.288, 4.946e-6
0.289, 5.016e-6
0.290, 5.083e-6
0.291, 5.151e-6
0.292, 5.224e-6
0.293, 5.284e-6
0.294, 5.354e-6
0.295, 5.418e-6
0.296, 5.495e-6
0.297, 5.564e-6
0.298, 5.628e-6
0.299, 5.701e-6
0.300, 5.773e-6
0.301, 5.840e-6
0.302, 5.914e-6
0.303, 5.985e-6
0.304, 6.060e-6
0.305, 6.132e-6
0.306, 6.199e-6
0.307, 6.302e-6
0.308, 6.382e-6
0.309, 6.435e-6
0.310, 6.504e-6
0.311, 6.579e-6
0.312, 6.648e-6
0.313, 6.730e-6
0.314, 6.796e-6
0.315, 6.869e-6
0.316, 6.951e-6
0.317, 7.022e-6
0.318, 7.103e-6
0.319, 7.187e-6
0.320, 7.247e-6
0.321, 7.328e-6
0.322, 7.413e-6
0.323, 7.501e-6
0.324, 7.577e-6
0.325, 7.655e-6
0.326, 7.745e-6
0.327, 7.827e-6
0.328, 7.909e-6
0.329, 7.992e-6
0.330, 8.075e-6
0.331, 8.163e-6
0.332, 8.254e-6
0.333, 8.340e-6
0.334, 8.430e-6
0.335, 8.526e-6
0.336, 8.607e-6
0.337, 8.701e-6
0.338, 8.783e-6
0.339, 8.878e-6
0.340, 8.025e-6
0.339, 5.919e-6
0.338, 4.875e-6
0.337, 4.246e-6
0.336, 3.790e-6
0.335, 3.417e-6
0.334, 3.107e-6
0.333, 2.819e-6
0.332, 2.593e-6
0.331, 2.395e-6
0.330, 2.212e-6
0.329, 2.042e-6
0.328, 1.899e-6
0.327, 1.763e-6
0.326, 1.640e-6
0.325, 1.528e-6
0.324, 1.427e-6
0.323, 1.346e-6
0.322, 1.252e-6
0.321, 1.174e-6
0.320, 1.125e-6
0.319, 1.043e-6
0.318, 9.826e-7
0.317, 9.212e-7
0.316, 8.620e-7
0.315, 8.184e-7
0.314, 7.744e-7
0.313, 7.352e-7
0.312, 6.915e-7
0.311, 6.571e-7
0.310, 6.278e-7
0.309, 5.952e-7
0.308, 5.568e-7
0.307, 4.920e-7
0.306, 4.933e-7
0.305, 4.738e-7
0.304, 4.595e-7
0.303, 4.399e-7
0.302, 4.224e-7
0.301, 4.037e-7
0.300, 3.866e-7
0.299, 3.757e-7
0.298, 3.576e-7
0.297, 3.476e-7
0.296, 3.374e-7
0.295, 3.250e-7
0.294, 3.246e-7
0.293, 3.046e-7
0.292, 2.905e-7
0.291, 2.935e-7
0.290, 2.794e-7
0.289, 2.682e-7
0.288, 2.652e-7
0.287, 2.581e-7
0.286, 2.528e-7
0.285, 2.449e-7
0.284, 2.389e-7
0.283, 2.386e-7
0.282, 2.237e-7
0.281, 2.192e-7
0.280, 2.197e-7
0.279, 2.160e-7
0.278, 2.109e-7
0.277, 2.064e-7
0.276, 2.012e-7
0.275, 1.944e-7
0.274, 1.950e-7
0.273, 1.885e-7
0.272, 1.867e-7
0.271, 1.833e-7
0.270, 1.799e-7
0.269, 1.819e-7
0.268, 1.701e-7
0.267, 1.686e-7
0.266, 1.638e-7
0.265, 1.601e-7
0.264, 1.587e-7
0.263, 1.531e-7
0.262, 1.500e-7
0.261, 1.449e-7
0.260, 1.420e-7
0.259, 1.392e-7
0.258, 1.340e-7
0.257, 1.285e-7
0.256, 1.193e-7
0.255, 1.163e-7
0.254, 1.140e-7
0.253, 1.090e-7
0.252, 1.018e-7
0.251, 9.939e-8
0.250, 9.713e-8
0.249, 8.772e-8
0.248, 8.357e-8
0.247, 7.524e-8
0.246, 7.720e-8
0.245, 6.904e-8
0.244, 6.033e-8
0.243, 6.355e-8
0.242, 5.559e-8
0.241, 3.967e-8
0.240, 4.803e-7
0.241, 1.286e-6
0.242, 1.575e-6
0.243, 1.737e-6
0.244, 1.868e-6
0.245, 1.974e-6
0.246, 2.072e-6
0.247, 2.164e-6
0.248, 2.242e-6
0.249, 2.325e-6
0.250, 2.399e-6
0.251, 2.472e-6
0.252, 2.547e-6
0.253, 2.612e-6
0.254, 2.683e-6
0.255, 2.750e-6
0.256, 2.816e-6
0.257, 2.885e-6
0.258, 2.945e-6
0.259, 3.010e-6
0.260, 3.072e-6
0.261, 3.133e-6
0.262, 3.196e-6
0.263, 3.260e-6
0.264, 3.326e-6
0.265, 3.390e-6
0.266, 3.446e-6
0.267, 3.512e-6
0.268, 3.576e-6
0.269, 3.629e-6
0.270, 3.700e-6
0.271, 3.758e-6
0.272, 3.823e-6
0.273, 3.892e-6
0.274, 3.950e-6
0.275, 4.014e-6
0.276, 4.081e-6
0.277, 4.144e-6
0.278, 4.204e-6
0.279, 4.270e-6
0.280, 4.334e-6
0.281, 4.404e-6
0.282, 4.471e-6
0.283, 4.529e-6
0.284, 4.598e-6
0.285, 4.657e-6
0.286, 4.727e-6
0.287, 4.797e-6
0.288, 4.858e-6
0.289, 4.928e-6
0.290, 4.991e-6
0.291, 5.055e-6
0.292, 5.129e-6
0.293, 5.193e-6
0.294, 5.262e-6
0.295, 5.319e-6
0.296, 5.393e-6
0.297, 5.468e-6
0.298, 5.530e-6
0.299, 5.601e-6
0.300, 5.670e-6
0.301, 5.741e-6
0.302, 5.811e-6
0.303, 5.884e-6
0.304, 5.952e-6
0.305, 6.023e-6
0.306, 6.085e-6
0.307, 6.193e-6
0.308, 6.275e-6
0.309, 6.322e-6
0.310, 6.394e-6
0.311, 6.469e-6
0.312, 6.542e-6
0.313, 6.620e-6
0.314, 6.688e-6
0.315, 6.769e-6
0.316, 6.847e-6
0.317, 6.916e-6
0.318, 6.988e-6
0.319, 7.073e-6
0.320, 7.133e-6
0.321, 7.229e-6
0.322, 7.298e-6
0.323, 7.380e-6
0.324, 7.461e-6
0.325, 7.539e-6
0.326, 7.624e-6
0.327, 7.712e-6
0.328, 7.796e-6
0.329, 7.877e-6
0.330, 7.954e-6
0.331, 8.041e-6
0.332, 8.135e-6
0.333, 8.230e-6
0.334, 8.309e-6
0.335, 8.394e-6
0.336, 8.478e-6
0.337, 8.568e-6
0.338, 8.664e-6
0.339, 8.757e-6
0.340, 7.901e-6
0.339, 5.800e-6
0.338, 4.770e-6
0.337, 4.148e-6
0.336, 3.693e-6
0.335, 3.312e-6
0.334, 3.013e-6
0.333, 2.741e-6
0.332, 2.505e-6
0.331, 2.300e-6
0.330, 2.125e-6
0.329, 1.961e-6
0.328, 1.827e-6
0.327, 1.680e-6
0.326, 1.566e-6
0.325, 1.459e-6
0.324, 1.350e-6
0.323, 1.272e-6
0.322, 1.185e-6
0.321, 1.104e-6
0.320, 1.046e-6
0.319, 9.716e-7
0.318, 9.122e-7
0.317, 8.531e-7
0.316, 8.003e-7
0.315, 7.564e-7
0.314, 7.110e-7
0.313, 6.672e-7
0.312, 6.279e-7
0.311, 5.927e-7
0.310, 5.619e-7
0.309, 5.333e-7
0.308, 4.947e-7
0.307, 4.286e-7
0.306, 4.290e-7
0.305, 4.174e-7
0.304, 4.009e-7
0.303, 3.765e-7
0.302, 3.695e-7
0.301, 3.509e-7
0.300, 3.302e-7
0.299, 3.148e-7
0.298, 3.034e-7
0.297, 2.931e-7
0.296, 2.861e-7
0.295, 2.720e-7
0.294, 2.676e-7
0.293, 2.516e-7
0.292, 2.384e-7
0.291, 2.362e-7
0.290, 2.276e-7
0.289, 2.199e-7
0.288, 2.129e-7
0.287, 2.063e-7
0.286, 2.017e-7
0.285, 1.963e-7
0.284, 1.934e-7
0.283, 1.907e-7
0.282, 1.768e-7
0.281, 1.686e-7
0.280, 1.737e-7
0.279, 1.662e-7
0.278, 1.676e-7
0.277, 1.600e-7
0.276, 1.545e-7
0.275, 1.473e-7
0.274, 1.475e-7
0.273, 1.405e-7
0.272, 1.462e-7
0.271, 1.395e-7
0.270, 1.366e-7
0.269, 1.398e-7
0.268, 1.357e-7
0.267, 1.313e-7
0.266, 1.236e-7
0.265, 1.180e-7
0.264, 1.153e-7
0.263, 1.089e-7
0.262, 1.070e-7
0.261, 1.012e-7
0.260, 1.022e-7
0.259, 9.984e-8
0.258, 9.419e-8
0.257, 8.923e-8
0.256, 8.198e-8
0.255, 7.787e-8
0.254, 7.644e-8
0.253, 6.991e-8
0.252, 6.781e-8
0.251, 6.560e-8
0.250, 5.515e-8
0.249, 4.953e-8
0.248, 4.713e-8
0.247, 4.391e-8
0.246, 3.784e-8
0.245, 3.466e-8
0.244, 2.396e-8
0.243, 2.960e-8
0.242, 1.998e-8
0.241, 7.850e-9
0.240, 4.466e-7
0.241, 1.249e-6
0.242, 1.535e-6
0.243, 1.701e-6
0.244, 1.824e-6
0.245, 1.931e-6
0.246, 2.030e-6
0.247, 2.120e-6
0.248, 2.195e-6
0.249, 2.281e-6
0.250, 2.352e-6
0.251, 2.424e-6
0.252, 2.497e-6
0.253, 2.565e-6
0.254, 2.630e-6
0.255, 2.698e-6
0.256, 2.764e-6
0.257, 2.831e-6
0.258, 2.894e-6
0.259, 2.953e-6
0.260, 3.019e-6
0.261, 3.076e-6
0.262, 3.138e-6
0.263, 3.206e-6
0.264, 3.265e-6
0.265, 3.330e-6
0.266, 3.386e-6
0.267, 3.455e-6
0.268, 3.513e-6
0.269, 3.565e-6
0.270, 3.632e-6
0.271, 3.698e-6
0.272, 3.756e-6
0.273, 3.822e-6
0.274, 3.883e-6
0.275, 3.947e-6
0.276, 4.014e-6
0.277, 4.074e-6
0.278, 4.135e-6
0.279, 4.197e-6
0.280, 4.262e-6
0.281, 4.328e-6
0.282, 4.397e-6
0.283, 4.461e-6
0.284, 4.523e-6
0.285, 4.587e-6
0.286, 4.648e-6
0.287, 4.714e-6
0.288, 4.782e-6
0.289, 4.850e-6
0.290, 4.914e-6
0.291, 4.976e-6
0.292, 5.047e-6
0.293, 5.105e-6
0.294, 5.175e-6
0.295, 5.241e-6
0.296, 5.310e-6
0.297, 5.381e-6
0.298, 5.443e-6
0.299, 5.514e-6
0.300, 5.592e-6
0.301, 5.656e-6
0.302, 5.720e-6
0.303, 5.790e-6
0.304, 5.866e-6
0.305, 5.940e-6
0.306, 6.002e-6
0.307, 6.107e-6
0.308, 6.181e-6
0.309, 6.233e-6
0.310, 6.297e-6
0.311, 6.371e-6
0.312, 6.440e-6
0.313, 6.525e-6
0.314, 6.596e-6
0.315, 6.668e-6
0.316, 6.746e-6
0.317, 6.817e-6
0.318, 6.894e-6
0.319, 6.975e-6
0.320, 7.032e-6
0.321, 7.122e-6
0.322, 7.199e-6
0.323, 7.280e-6
0.324, 7.368e-6
0.325, 7.439e-6
0.326, 7.518e-6
0.327, 7.608e-6
0.328, 7.686e-6
0.329, 7.774e-6
0.330, 7.842e-6
0.331, 7.939e-6
0.332, 8.034e-6
0.333, 8.118e-6
0.334, 8.204e-6
0.335, 8.289e-6
0.336, 8.369e-6
0.337, 8.469e-6
0.338, 8.559e-6
0.339, 8.643e-6
0.340, 7.796e-6
0.339, 5.707e-6
0.338, 4.682e-6
0.337, 4.057e-6
0.336, 3.614e-6
0.335, 3.240e-6
0.334, 2.937e-6
0.333, 2.664e-6
0.332, 2.432e-6
0.331, 2.231e-6
0.330, 2.053e-6
0.329, 1.896e-6
0.328, 1.749e-6
0.327, 1.613e-6
0.326, 1.500e-6
0.325, 1.394e-6
0.324, 1.285e-6
0.323, 1.205e-6
0.322, 1.122e-6
0.321, 1.046e-6
0.320, 9.867e-7
0.319, 9.128e-7
0.318, 8.561e-7
0.317, 7.997e-7
0.316, 7.437e-7
0.315, 6.977e-7
0.314, 6.528e-7
0.313, 6.068e-7
0.312, 5.778e-7
0.311, 5.353e-7
0.310, 5.100e-7
0.309, 4.695e-7
0.308, 4.488e-7
0.307, 3.770e-7
0.306, 3.749e-7
0.305, 3.659e-7
0.304, 3.525e-7
0.303, 3.309e-7
0.302, 3.153e-7
0.301, 2.942e-7
0.300, 2.791e-7
0.299, 2.659e-7
0.298, 2.587e-7
0.297, 2.415e-7
0.296, 2.321e-7
0.295, 2.259e-7
0.294, 2.193e-7
0.293, 2.024e-7
0.292, 1.970e-7
0.291, 1.932e-7
0.290, 1.835e-7
0.289, 1.732e-7
0.288, 1.665e-7
0.287, 1.633e-7
0.286, 1.544e-7
0.285, 1.511e-7
0.284, 1.458e-7
0.283, 1.402e-7
0.282, 1.330e-7
0.281, 1.286e-7
0.280, 1.260e-7
0.279, 1.207e-7
0.278, 1.236e-7
0.277, 1.165e-7
0.276, 1.098e-7
0.275, 1.094e-7
0.274, 1.077e-7
0.273, 1.025e-7
0.272, 1.068e-7
0.271, 9.908e-8
0.270, 9.486e-8
0.269, 9.806e-8
0.268, 9.247e-8
0.267, 8.663e-8
0.266, 8.566e-8
0.265, 7.876e-8
0.264, 7.731e-8
0.263, 7.358e-8
0.262, 6.951e-8
0.261, 6.922e-8
0.260, 6.462e-8
0.259, 6.419e-8
0.258, 6.154e-8
0.257, 5.302e-8
0.256, 4.881e-8
0.255, 4.622e-8
0.254, 4.145e-8
0.253, 3.758e-8
0.252, 3.297e-8
0.251, 2.785e-8
0.250, 2.347e-8
0.249, 1.822e-8
0.248, 1.616e-8
0.247, 7.670e-9
0.246, 5.999e-9
0.245, 1.648e-9
0.244, -3.757e-9
0.243, -1.406e-9
0.242, -1.108e-8
0.241, -2.125e-8
