Sept. 21, 2026   17:23:09
Cyclic Voltammetry
File: d:\desktop\sample\ss310 1 cm2\ss310_sheet cv 80 mv.bin
Data Source:  Experiment
Instrument Model:  CHI660D
Header: 
Note: 

Init E (V) = 0.24
High E (V) = 0.34
Low E (V) = 0.24
Init P/N = P
Scan Rate (V/s) = 0.08
Segment = 20
Sample Interval (V) = 0.001
Quiet Time (sec) = 2
Sensitivity (A/V) = 1e-5

Results:

Channel 1:
Segment 1:

Segment 2:

Segment 3:

Segment 4:

Segment 5:

Segment 6:

Segment 7:

Segment 8:

Segment 9:

Segment 10:

Segment 11:

Segment 12:

Segment 13:

Segment 14:

Segment 15:

Segment 16:

Segment 17:

Segment 18:

Segment 19:

Segment 20:

Potential/V, Current/A

0.240, 3.382e-6
0.241, 5.506e-6
0.242, 6.086e-6
0.243, 6.397e-6
0.244, 6.668e-6
0.245, 6.878e-6
0.246, 7.096e-6
0.247, 7.268e-6
0.248, 7.415e-6
0.249, 7.600e-6
0.250, 7.746e-6
0.251, 7.880e-6
0.252, 8.043e-6
0.253, 8.172e-6
0.254, 8.325e-6
0.255, 8.471e-6
0.256, 8.618e-6
0.257, 8.744e-6
0.258, 8.851e-6
0.259, 8.987e-6
0.260, 9.155e-6
0.261, 9.278e-6
0.262, 9.419e-6
0.263, 9.571e-6
0.264, 9.706e-6
0.265, 9.852e-6
0.266, 9.982e-6
0.267, 1.011e-5
0.268, 1.030e-5
0.269, 1.038e-5
0.270, 1.057e-5
0.271, 1.073e-5
0.272, 1.086e-5
0.273, 1.106e-5
0.274, 1.117e-5
0.275, 1.133e-5
0.276, 1.154e-5
0.277, 1.169e-5
0.278, 1.185e-5
0.279, 1.201e-5
0.280, 1.218e-5
0.281, 1.240e-5
0.282, 1.255e-5
0.283, 1.272e-5
0.284, 1.292e-5
0.285, 1.307e-5
0.286, 1.327e-5
0.287, 1.347e-5
0.288, 1.366e-5
0.289, 1.386e-5
0.290, 1.407e-5
0.291, 1.425e-5
0.292, 1.446e-5
0.293, 1.467e-5
0.294, 1.485e-5
0.295, 1.510e-5
0.296, 1.531e-5
0.297, 1.556e-5
0.298, 1.576e-5
0.299, 1.598e-5
0.300, 1.623e-5
0.301, 1.644e-5
0.302, 1.670e-5
0.303, 1.695e-5
0.304, 1.717e-5
0.305, 1.748e-5
0.306, 1.767e-5
0.307, 1.812e-5
0.308, 1.837e-5
0.309, 1.855e-5
0.310, 1.880e-5
0.311, 1.907e-5
0.312, 1.935e-5
0.313, 1.967e-5
0.314, 1.992e-5
0.315, 2.022e-5
0.316, 2.053e-5
0.317, 2.078e-5
0.318, 2.110e-5
0.319, 2.142e-5
0.320, 2.168e-5
0.321, 2.204e-5
0.322, 2.238e-5
0.323, 2.269e-5
0.324, 2.302e-5
0.325, 2.335e-5
0.326, 2.372e-5
0.327, 2.405e-5
0.328, 2.442e-5
0.329, 2.481e-5
0.330, 2.511e-5
0.331, 2.548e-5
0.332, 2.590e-5
0.333, 2.628e-5
0.334, 2.664e-5
0.335, 2.707e-5
0.336, 2.744e-5
0.337, 2.785e-5
0.338, 2.823e-5
0.339, 2.868e-5
0.340, 2.451e-5
0.339, 1.547e-5
0.338, 1.165e-5
0.337, 9.418e-6
0.336, 7.737e-6
0.335, 6.342e-6
0.334, 5.212e-6
0.333, 4.128e-6
0.332, 3.241e-6
0.331, 2.526e-6
0.330, 1.816e-6
0.329, 1.182e-6
0.328, 6.300e-7
0.327, 7.616e-8
0.326, -4.019e-7
0.325, -8.751e-7
0.324, -1.261e-6
0.323, -1.606e-6
0.322, -1.970e-6
0.321, -2.310e-6
0.320, -2.524e-6
0.319, -2.871e-6
0.318, -3.137e-6
0.317, -3.369e-6
0.316, -3.608e-6
0.315, -3.791e-6
0.314, -4.033e-6
0.313, -4.232e-6
0.312, -4.339e-6
0.311, -4.559e-6
0.310, -4.668e-6
0.309, -4.822e-6
0.308, -4.974e-6
0.307, -5.290e-6
0.306, -5.271e-6
0.305, -5.345e-6
0.304, -5.420e-6
0.303, -5.509e-6
0.302, -5.601e-6
0.301, -5.709e-6
0.300, -5.768e-6
0.299, -5.782e-6
0.298, -5.886e-6
0.297, -5.953e-6
0.296, -5.974e-6
0.295, -6.058e-6
0.294, -6.058e-6
0.293, -6.142e-6
0.292, -6.196e-6
0.291, -6.195e-6
0.290, -6.234e-6
0.289, -6.298e-6
0.288, -6.315e-6
0.287, -6.346e-6
0.286, -6.387e-6
0.285, -6.397e-6
0.284, -6.427e-6
0.283, -6.456e-6
0.282, -6.459e-6
0.281, -6.523e-6
0.280, -6.496e-6
0.279, -6.512e-6
0.278, -6.511e-6
0.277, -6.530e-6
0.276, -6.515e-6
0.275, -6.554e-6
0.274, -6.552e-6
0.273, -6.547e-6
0.272, -6.547e-6
0.271, -6.546e-6
0.270, -6.557e-6
0.269, -6.510e-6
0.268, -6.563e-6
0.267, -6.554e-6
0.266, -6.537e-6
0.265, -6.569e-6
0.264, -6.544e-6
0.263, -6.571e-6
0.262, -6.542e-6
0.261, -6.547e-6
0.260, -6.551e-6
0.259, -6.523e-6
0.258, -6.519e-6
0.257, -6.539e-6
0.256, -6.558e-6
0.255, -6.544e-6
0.254, -6.533e-6
0.253, -6.495e-6
0.252, -6.529e-6
0.251, -6.507e-6
0.250, -6.505e-6
0.249, -6.528e-6
0.248, -6.509e-6
0.247, -6.488e-6
0.246, -6.484e-6
0.245, -6.480e-6
0.244, -6.467e-6
0.243, -6.424e-6
0.242, -6.476e-6
0.241, -6.495e-6
0.240, -3.762e-6
0.241, 5.571e-7
0.242, 1.767e-6
0.243, 2.423e-6
0.244, 2.907e-6
0.245, 3.322e-6
0.246, 3.669e-6
0.247, 3.951e-6
0.248, 4.211e-6
0.249, 4.481e-6
0.250, 4.713e-6
0.251, 4.920e-6
0.252, 5.145e-6
0.253, 5.328e-6
0.254, 5.506e-6
0.255, 5.707e-6
0.256, 5.912e-6
0.257, 6.079e-6
0.258, 6.226e-6
0.259, 6.385e-6
0.260, 6.560e-6
0.261, 6.707e-6
0.262, 6.879e-6
0.263, 7.043e-6
0.264, 7.190e-6
0.265, 7.346e-6
0.266, 7.504e-6
0.267, 7.682e-6
0.268, 7.843e-6
0.269, 7.920e-6
0.270, 8.129e-6
0.271, 8.313e-6
0.272, 8.426e-6
0.273, 8.638e-6
0.274, 8.776e-6
0.275, 8.940e-6
0.276, 9.121e-6
0.277, 9.278e-6
0.278, 9.429e-6
0.279, 9.607e-6
0.280, 9.775e-6
0.281, 9.979e-6
0.282, 1.017e-5
0.283, 1.032e-5
0.284, 1.050e-5
0.285, 1.067e-5
0.286, 1.084e-5
0.287, 1.103e-5
0.288, 1.123e-5
0.289, 1.145e-5
0.290, 1.161e-5
0.291, 1.181e-5
0.292, 1.204e-5
0.293, 1.224e-5
0.294, 1.240e-5
0.295, 1.262e-5
0.296, 1.285e-5
0.297, 1.307e-5
0.298, 1.326e-5
0.299, 1.351e-5
0.300, 1.377e-5
0.301, 1.398e-5
0.302, 1.420e-5
0.303, 1.445e-5
0.304, 1.466e-5
0.305, 1.496e-5
0.306, 1.517e-5
0.307, 1.559e-5
0.308, 1.585e-5
0.309, 1.601e-5
0.310, 1.625e-5
0.311, 1.655e-5
0.312, 1.681e-5
0.313, 1.709e-5
0.314, 1.738e-5
0.315, 1.766e-5
0.316, 1.797e-5
0.317, 1.821e-5
0.318, 1.856e-5
0.319, 1.888e-5
0.320, 1.910e-5
0.321, 1.950e-5
0.322, 1.980e-5
0.323, 2.011e-5
0.324, 2.048e-5
0.325, 2.078e-5
0.326, 2.115e-5
0.327, 2.152e-5
0.328, 2.186e-5
0.329, 2.229e-5
0.330, 2.256e-5
0.331, 2.295e-5
0.332, 2.337e-5
0.333, 2.379e-5
0.334, 2.413e-5
0.335, 2.449e-5
0.336, 2.492e-5
0.337, 2.530e-5
0.338, 2.573e-5
0.339, 2.617e-5
0.340, 2.203e-5
0.339, 1.309e-5
0.338, 9.339e-6
0.337, 7.122e-6
0.336, 5.552e-6
0.335, 4.209e-6
0.334, 3.134e-6
0.333, 2.100e-6
0.332, 1.293e-6
0.331, 6.578e-7
0.330, -4.241e-8
0.329, -6.322e-7
0.328, -1.122e-6
0.327, -1.670e-6
0.326, -2.062e-6
0.325, -2.487e-6
0.324, -2.842e-6
0.323, -3.166e-6
0.322, -3.503e-6
0.321, -3.803e-6
0.320, -4.005e-6
0.319, -4.287e-6
0.318, -4.546e-6
0.317, -4.735e-6
0.316, -4.927e-6
0.315, -5.124e-6
0.314, -5.295e-6
0.313, -5.487e-6
0.312, -5.588e-6
0.311, -5.749e-6
0.310, -5.842e-6
0.309, -5.959e-6
0.308, -6.129e-6
0.307, -6.412e-6
0.306, -6.396e-6
0.305, -6.416e-6
0.304, -6.423e-6
0.303, -6.576e-6
0.302, -6.628e-6
0.301, -6.690e-6
0.300, -6.732e-6
0.299, -6.789e-6
0.298, -6.838e-6
0.297, -6.891e-6
0.296, -6.894e-6
0.295, -6.959e-6
0.294, -6.945e-6
0.293, -7.010e-6
0.292, -7.065e-6
0.291, -7.067e-6
0.290, -7.088e-6
0.289, -7.139e-6
0.288, -7.128e-6
0.287, -7.165e-6
0.286, -7.171e-6
0.285, -7.170e-6
0.284, -7.210e-6
0.283, -7.178e-6
0.282, -7.228e-6
0.281, -7.257e-6
0.280, -7.198e-6
0.279, -7.220e-6
0.278, -7.234e-6
0.277, -7.212e-6
0.276, -7.206e-6
0.275, -7.221e-6
0.274, -7.212e-6
0.273, -7.219e-6
0.272, -7.191e-6
0.271, -7.235e-6
0.270, -7.196e-6
0.269, -7.150e-6
0.268, -7.168e-6
0.267, -7.162e-6
0.266, -7.183e-6
0.265, -7.176e-6
0.264, -7.142e-6
0.263, -7.145e-6
0.262, -7.154e-6
0.261, -7.124e-6
0.260, -7.118e-6
0.259, -7.107e-6
0.258, -7.119e-6
0.257, -7.113e-6
0.256, -7.110e-6
0.255, -7.084e-6
0.254, -7.066e-6
0.253, -7.062e-6
0.252, -7.077e-6
0.251, -7.051e-6
0.250, -7.030e-6
0.249, -7.032e-6
0.248, -7.015e-6
0.247, -7.004e-6
0.246, -6.995e-6
0.245, -7.003e-6
0.244, -6.993e-6
0.243, -6.927e-6
0.242, -6.967e-6
0.241, -6.961e-6
0.240, -4.238e-6
0.241, 9.387e-8
0.242, 1.344e-6
0.243, 1.959e-6
0.244, 2.461e-6
0.245, 2.871e-6
0.246, 3.202e-6
0.247, 3.522e-6
0.248, 3.803e-6
0.249, 4.071e-6
0.250, 4.275e-6
0.251, 4.501e-6
0.252, 4.718e-6
0.253, 4.896e-6
0.254, 5.077e-6
0.255, 5.271e-6
0.256, 5.471e-6
0.257, 5.658e-6
0.258, 5.785e-6
0.259, 5.959e-6
0.260, 6.128e-6
0.261, 6.271e-6
0.262, 6.420e-6
0.263, 6.617e-6
0.264, 6.766e-6
0.265, 6.933e-6
0.266, 7.036e-6
0.267, 7.222e-6
0.268, 7.384e-6
0.269, 7.473e-6
0.270, 7.671e-6
0.271, 7.847e-6
0.272, 7.978e-6
0.273, 8.181e-6
0.274, 8.309e-6
0.275, 8.477e-6
0.276, 8.662e-6
0.277, 8.786e-6
0.278, 8.936e-6
0.279, 9.126e-6
0.280, 9.294e-6
0.281, 9.483e-6
0.282, 9.646e-6
0.283, 9.810e-6
0.284, 1.000e-5
0.285, 1.014e-5
0.286, 1.033e-5
0.287, 1.052e-5
0.288, 1.071e-5
0.289, 1.090e-5
0.290, 1.107e-5
0.291, 1.127e-5
0.292, 1.149e-5
0.293, 1.168e-5
0.294, 1.185e-5
0.295, 1.206e-5
0.296, 1.229e-5
0.297, 1.252e-5
0.298, 1.271e-5
0.299, 1.292e-5
0.300, 1.316e-5
0.301, 1.337e-5
0.302, 1.362e-5
0.303, 1.384e-5
0.304, 1.409e-5
0.305, 1.435e-5
0.306, 1.456e-5
0.307, 1.498e-5
0.308, 1.523e-5
0.309, 1.539e-5
0.310, 1.563e-5
0.311, 1.591e-5
0.312, 1.617e-5
0.313, 1.645e-5
0.314, 1.674e-5
0.315, 1.699e-5
0.316, 1.731e-5
0.317, 1.755e-5
0.318, 1.786e-5
0.319, 1.820e-5
0.320, 1.845e-5
0.321, 1.880e-5
0.322, 1.912e-5
0.323, 1.942e-5
0.324, 1.983e-5
0.325, 2.010e-5
0.326, 2.044e-5
0.327, 2.081e-5
0.328, 2.114e-5
0.329, 2.156e-5
0.330, 2.184e-5
0.331, 2.225e-5
0.332, 2.266e-5
0.333, 2.305e-5
0.334, 2.339e-5
0.335, 2.378e-5
0.336, 2.415e-5
0.337, 2.459e-5
0.338, 2.499e-5
0.339, 2.542e-5
0.340, 2.130e-5
0.339, 1.231e-5
0.338, 8.625e-6
0.337, 6.424e-6
0.336, 4.864e-6
0.335, 3.553e-6
0.334, 2.453e-6
0.333, 1.482e-6
0.332, 7.297e-7
0.331, -2.820e-9
0.330, -6.328e-7
0.329, -1.219e-6
0.328, -1.698e-6
0.327, -2.208e-6
0.326, -2.606e-6
0.325, -3.017e-6
0.324, -3.412e-6
0.323, -3.706e-6
0.322, -4.030e-6
0.321, -4.297e-6
0.320, -4.449e-6
0.319, -4.780e-6
0.318, -4.996e-6
0.317, -5.220e-6
0.316, -5.388e-6
0.315, -5.559e-6
0.314, -5.769e-6
0.313, -5.905e-6
0.312, -6.010e-6
0.311, -6.150e-6
0.310, -6.283e-6
0.309, -6.417e-6
0.308, -6.524e-6
0.307, -6.799e-6
0.306, -6.716e-6
0.305, -6.837e-6
0.304, -6.833e-6
0.303, -6.924e-6
0.302, -6.971e-6
0.301, -7.041e-6
0.300, -7.098e-6
0.299, -7.120e-6
0.298, -7.174e-6
0.297, -7.241e-6
0.296, -7.290e-6
0.295, -7.257e-6
0.294, -7.287e-6
0.293, -7.344e-6
0.292, -7.364e-6
0.291, -7.366e-6
0.290, -7.389e-6
0.289, -7.437e-6
0.288, -7.443e-6
0.287, -7.449e-6
0.286, -7.472e-6
0.285, -7.478e-6
0.284, -7.490e-6
0.283, -7.458e-6
0.282, -7.509e-6
0.281, -7.535e-6
0.280, -7.472e-6
0.279, -7.497e-6
0.278, -7.494e-6
0.277, -7.509e-6
0.276, -7.481e-6
0.275, -7.497e-6
0.274, -7.490e-6
0.273, -7.481e-6
0.272, -7.445e-6
0.271, -7.469e-6
0.270, -7.460e-6
0.269, -7.412e-6
0.268, -7.438e-6
0.267, -7.398e-6
0.266, -7.400e-6
0.265, -7.420e-6
0.264, -7.382e-6
0.263, -7.382e-6
0.262, -7.392e-6
0.261, -7.374e-6
0.260, -7.364e-6
0.259, -7.343e-6
0.258, -7.334e-6
0.257, -7.340e-6
0.256, -7.338e-6
0.255, -7.304e-6
0.254, -7.298e-6
0.253, -7.305e-6
0.252, -7.262e-6
0.251, -7.261e-6
0.250, -7.234e-6
0.249, -7.275e-6
0.248, -7.249e-6
0.247, -7.222e-6
0.246, -7.213e-6
0.245, -7.206e-6
0.244, -7.217e-6
0.243, -7.159e-6
0.242, -7.184e-6
0.241, -7.183e-6
0.240, -4.458e-6
0.241, -1.095e-7
0.242, 1.159e-6
0.243, 1.776e-6
0.244, 2.293e-6
0.245, 2.696e-6
0.246, 3.022e-6
0.247, 3.344e-6
0.248, 3.611e-6
0.249, 3.860e-6
0.250, 4.085e-6
0.251, 4.320e-6
0.252, 4.521e-6
0.253, 4.702e-6
0.254, 4.900e-6
0.255, 5.105e-6
0.256, 5.275e-6
0.257, 5.447e-6
0.258, 5.610e-6
0.259, 5.752e-6
0.260, 5.939e-6
0.261, 6.073e-6
0.262, 6.244e-6
0.263, 6.402e-6
0.264, 6.560e-6
0.265, 6.726e-6
0.266, 6.838e-6
0.267, 7.008e-6
0.268, 7.193e-6
0.269, 7.285e-6
0.270, 7.455e-6
0.271, 7.622e-6
0.272, 7.785e-6
0.273, 7.942e-6
0.274, 8.096e-6
0.275, 8.247e-6
0.276, 8.404e-6
0.277, 8.572e-6
0.278, 8.718e-6
0.279, 8.906e-6
0.280, 9.052e-6
0.281, 9.265e-6
0.282, 9.429e-6
0.283, 9.576e-6
0.284, 9.751e-6
0.285, 9.900e-6
0.286, 1.008e-5
0.287, 1.029e-5
0.288, 1.047e-5
0.289, 1.066e-5
0.290, 1.082e-5
0.291, 1.100e-5
0.292, 1.123e-5
0.293, 1.144e-5
0.294, 1.159e-5
0.295, 1.179e-5
0.296, 1.199e-5
0.297, 1.224e-5
0.298, 1.244e-5
0.299, 1.266e-5
0.300, 1.289e-5
0.301, 1.309e-5
0.302, 1.333e-5
0.303, 1.357e-5
0.304, 1.380e-5
0.305, 1.405e-5
0.306, 1.427e-5
0.307, 1.470e-5
0.308, 1.490e-5
0.309, 1.507e-5
0.310, 1.533e-5
0.311, 1.559e-5
0.312, 1.582e-5
0.313, 1.616e-5
0.314, 1.639e-5
0.315, 1.668e-5
0.316, 1.697e-5
0.317, 1.725e-5
0.318, 1.755e-5
0.319, 1.790e-5
0.320, 1.809e-5
0.321, 1.845e-5
0.322, 1.876e-5
0.323, 1.907e-5
0.324, 1.945e-5
0.325, 1.974e-5
0.326, 2.008e-5
0.327, 2.046e-5
0.328, 2.077e-5
0.329, 2.116e-5
0.330, 2.148e-5
0.331, 2.187e-5
0.332, 2.227e-5
0.333, 2.267e-5
0.334, 2.305e-5
0.335, 2.342e-5
0.336, 2.374e-5
0.337, 2.421e-5
0.338, 2.459e-5
0.339, 2.502e-5
0.340, 2.090e-5
0.339, 1.195e-5
0.338, 8.300e-6
0.337, 6.076e-6
0.336, 4.526e-6
0.335, 3.233e-6
0.334, 2.152e-6
0.333, 1.187e-6
0.332, 3.651e-7
0.331, -3.113e-7
0.330, -9.469e-7
0.329, -1.488e-6
0.328, -1.981e-6
0.327, -2.490e-6
0.326, -2.905e-6
0.325, -3.303e-6
0.324, -3.675e-6
0.323, -3.962e-6
0.322, -4.277e-6
0.321, -4.511e-6
0.320, -4.724e-6
0.319, -5.033e-6
0.318, -5.228e-6
0.317, -5.454e-6
0.316, -5.657e-6
0.315, -5.781e-6
0.314, -5.944e-6
0.313, -6.111e-6
0.312, -6.220e-6
0.311, -6.372e-6
0.310, -6.476e-6
0.309, -6.601e-6
0.308, -6.704e-6
0.307, -7.011e-6
0.306, -6.957e-6
0.305, -7.023e-6
0.304, -7.026e-6
0.303, -7.122e-6
0.302, -7.173e-6
0.301, -7.229e-6
0.300, -7.275e-6
0.299, -7.294e-6
0.298, -7.351e-6
0.297, -7.402e-6
0.296, -7.411e-6
0.295, -7.449e-6
0.294, -7.480e-6
0.293, -7.508e-6
0.292, -7.562e-6
0.291, -7.511e-6
0.290, -7.563e-6
0.289, -7.616e-6
0.288, -7.607e-6
0.287, -7.605e-6
0.286, -7.617e-6
0.285, -7.617e-6
0.284, -7.622e-6
0.283, -7.632e-6
0.282, -7.655e-6
0.281, -7.694e-6
0.280, -7.641e-6
0.279, -7.645e-6
0.278, -7.620e-6
0.277, -7.648e-6
0.276, -7.652e-6
0.275, -7.611e-6
0.274, -7.617e-6
0.273, -7.602e-6
0.272, -7.586e-6
0.271, -7.609e-6
0.270, -7.590e-6
0.269, -7.548e-6
0.268, -7.541e-6
0.267, -7.545e-6
0.266, -7.544e-6
0.265, -7.547e-6
0.264, -7.506e-6
0.263, -7.532e-6
0.262, -7.517e-6
0.261, -7.499e-6
0.260, -7.510e-6
0.259, -7.450e-6
0.258, -7.471e-6
0.257, -7.477e-6
0.256, -7.446e-6
0.255, -7.449e-6
0.254, -7.425e-6
0.253, -7.387e-6
0.252, -7.403e-6
0.251, -7.375e-6
0.250, -7.382e-6
0.249, -7.387e-6
0.248, -7.338e-6
0.247, -7.353e-6
0.246, -7.318e-6
0.245, -7.330e-6
0.244, -7.323e-6
0.243, -7.265e-6
0.242, -7.284e-6
0.241, -7.303e-6
0.240, -4.561e-6
0.241, -2.240e-7
0.242, 1.026e-6
0.243, 1.678e-6
0.244, 2.191e-6
0.245, 2.575e-6
0.246, 2.928e-6
0.247, 3.226e-6
0.248, 3.490e-6
0.249, 3.776e-6
0.250, 3.948e-6
0.251, 4.220e-6
0.252, 4.417e-6
0.253, 4.593e-6
0.254, 4.788e-6
0.255, 5.000e-6
0.256, 5.168e-6
0.257, 5.336e-6
0.258, 5.487e-6
0.259, 5.675e-6
0.260, 5.831e-6
0.261, 5.970e-6
0.262, 6.134e-6
0.263, 6.307e-6
0.264, 6.432e-6
0.265, 6.608e-6
0.266, 6.720e-6
0.267, 6.885e-6
0.268, 7.076e-6
0.269, 7.159e-6
0.270, 7.364e-6
0.271, 7.500e-6
0.272, 7.632e-6
0.273, 7.837e-6
0.274, 7.958e-6
0.275, 8.137e-6
0.276, 8.300e-6
0.277, 8.445e-6
0.278, 8.586e-6
0.279, 8.770e-6
0.280, 8.929e-6
0.281, 9.102e-6
0.282, 9.278e-6
0.283, 9.458e-6
0.284, 9.623e-6
0.285, 9.769e-6
0.286, 9.963e-6
0.287, 1.016e-5
0.288, 1.030e-5
0.289, 1.049e-5
0.290, 1.068e-5
0.291, 1.087e-5
0.292, 1.108e-5
0.293, 1.125e-5
0.294, 1.141e-5
0.295, 1.162e-5
0.296, 1.184e-5
0.297, 1.207e-5
0.298, 1.226e-5
0.299, 1.247e-5
0.300, 1.274e-5
0.301, 1.294e-5
0.302, 1.317e-5
0.303, 1.339e-5
0.304, 1.360e-5
0.305, 1.387e-5
0.306, 1.409e-5
0.307, 1.450e-5
0.308, 1.476e-5
0.309, 1.488e-5
0.310, 1.515e-5
0.311, 1.539e-5
0.312, 1.563e-5
0.313, 1.593e-5
0.314, 1.622e-5
0.315, 1.647e-5
0.316, 1.679e-5
0.317, 1.703e-5
0.318, 1.734e-5
0.319, 1.768e-5
0.320, 1.789e-5
0.321, 1.824e-5
0.322, 1.856e-5
0.323, 1.887e-5
0.324, 1.920e-5
0.325, 1.952e-5
0.326, 1.986e-5
0.327, 2.023e-5
0.328, 2.057e-5
0.329, 2.097e-5
0.330, 2.123e-5
0.331, 2.164e-5
0.332, 2.201e-5
0.333, 2.244e-5
0.334, 2.279e-5
0.335, 2.319e-5
0.336, 2.352e-5
0.337, 2.397e-5
0.338, 2.433e-5
0.339, 2.480e-5
0.340, 2.065e-5
0.339, 1.173e-5
0.338, 8.064e-6
0.337, 5.890e-6
0.336, 4.323e-6
0.335, 3.019e-6
0.334, 1.955e-6
0.333, 9.632e-7
0.332, 1.540e-7
0.331, -4.876e-7
0.330, -1.102e-6
0.329, -1.688e-6
0.328, -2.176e-6
0.327, -2.661e-6
0.326, -3.050e-6
0.325, -3.458e-6
0.324, -3.805e-6
0.323, -4.103e-6
0.322, -4.431e-6
0.321, -4.714e-6
0.320, -4.854e-6
0.319, -5.163e-6
0.318, -5.377e-6
0.317, -5.543e-6
0.316, -5.782e-6
0.315, -5.928e-6
0.314, -6.074e-6
0.313, -6.243e-6
0.312, -6.360e-6
0.311, -6.516e-6
0.310, -6.597e-6
0.309, -6.720e-6
0.308, -6.823e-6
0.307, -7.144e-6
0.306, -7.066e-6
0.305, -7.124e-6
0.304, -7.142e-6
0.303, -7.254e-6
0.302, -7.270e-6
0.301, -7.322e-6
0.300, -7.414e-6
0.299, -7.413e-6
0.298, -7.470e-6
0.297, -7.493e-6
0.296, -7.508e-6
0.295, -7.572e-6
0.294, -7.558e-6
0.293, -7.598e-6
0.292, -7.647e-6
0.291, -7.654e-6
0.290, -7.680e-6
0.289, -7.701e-6
0.288, -7.692e-6
0.287, -7.703e-6
0.286, -7.707e-6
0.285, -7.712e-6
0.284, -7.736e-6
0.283, -7.712e-6
0.282, -7.749e-6
0.281, -7.753e-6
0.280, -7.724e-6
0.279, -7.748e-6
0.278, -7.707e-6
0.277, -7.714e-6
0.276, -7.735e-6
0.275, -7.716e-6
0.274, -7.690e-6
0.273, -7.701e-6
0.272, -7.675e-6
0.271, -7.697e-6
0.270, -7.662e-6
0.269, -7.624e-6
0.268, -7.632e-6
0.267, -7.635e-6
0.266, -7.608e-6
0.265, -7.627e-6
0.264, -7.602e-6
0.263, -7.618e-6
0.262, -7.572e-6
0.261, -7.583e-6
0.260, -7.572e-6
0.259, -7.554e-6
0.258, -7.534e-6
0.257, -7.527e-6
0.256, -7.531e-6
0.255, -7.517e-6
0.254, -7.497e-6
0.253, -7.482e-6
0.252, -7.479e-6
0.251, -7.468e-6
0.250, -7.456e-6
0.249, -7.451e-6
0.248, -7.413e-6
0.247, -7.441e-6
0.246, -7.404e-6
0.245, -7.389e-6
0.244, -7.405e-6
0.243, -7.351e-6
0.242, -7.364e-6
0.241, -7.379e-6
0.240, -4.635e-6
0.241, -2.878e-7
0.242, 9.653e-7
0.243, 1.619e-6
0.244, 2.130e-6
0.245, 2.513e-6
0.246, 2.863e-6
0.247, 3.170e-6
0.248, 3.428e-6
0.249, 3.702e-6
0.250, 3.915e-6
0.251, 4.147e-6
0.252, 4.359e-6
0.253, 4.509e-6
0.254, 4.728e-6
0.255, 4.923e-6
0.256, 5.095e-6
0.257, 5.250e-6
0.258, 5.427e-6
0.259, 5.595e-6
0.260, 5.767e-6
0.261, 5.883e-6
0.262, 6.053e-6
0.263, 6.235e-6
0.264, 6.353e-6
0.265, 6.518e-6
0.266, 6.661e-6
0.267, 6.833e-6
0.268, 7.007e-6
0.269, 7.082e-6
0.270, 7.269e-6
0.271, 7.432e-6
0.272, 7.559e-6
0.273, 7.711e-6
0.274, 7.883e-6
0.275, 8.047e-6
0.276, 8.218e-6
0.277, 8.325e-6
0.278, 8.513e-6
0.279, 8.680e-6
0.280, 8.838e-6
0.281, 9.030e-6
0.282, 9.201e-6
0.283, 9.339e-6
0.284, 9.524e-6
0.285, 9.676e-6
0.286, 9.862e-6
0.287, 1.004e-5
0.288, 1.021e-5
0.289, 1.041e-5
0.290, 1.057e-5
0.291, 1.078e-5
0.292, 1.097e-5
0.293, 1.115e-5
0.294, 1.133e-5
0.295, 1.153e-5
0.296, 1.171e-5
0.297, 1.196e-5
0.298, 1.214e-5
0.299, 1.239e-5
0.300, 1.261e-5
0.301, 1.281e-5
0.302, 1.304e-5
0.303, 1.330e-5
0.304, 1.347e-5
0.305, 1.374e-5
0.306, 1.397e-5
0.307, 1.439e-5
0.308, 1.460e-5
0.309, 1.476e-5
0.310, 1.502e-5
0.311, 1.527e-5
0.312, 1.551e-5
0.313, 1.579e-5
0.314, 1.606e-5
0.315, 1.636e-5
0.316, 1.666e-5
0.317, 1.690e-5
0.318, 1.719e-5
0.319, 1.751e-5
0.320, 1.773e-5
0.321, 1.810e-5
0.322, 1.838e-5
0.323, 1.872e-5
0.324, 1.906e-5
0.325, 1.938e-5
0.326, 1.972e-5
0.327, 2.012e-5
0.328, 2.039e-5
0.329, 2.078e-5
0.330, 2.109e-5
0.331, 2.149e-5
0.332, 2.186e-5
0.333, 2.228e-5
0.334, 2.261e-5
0.335, 2.300e-5
0.336, 2.336e-5
0.337, 2.376e-5
0.338, 2.418e-5
0.339, 2.464e-5
0.340, 2.049e-5
0.339, 1.156e-5
0.338, 7.923e-6
0.337, 5.723e-6
0.336, 4.180e-6
0.335, 2.866e-6
0.334, 1.829e-6
0.333, 8.538e-7
0.332, 5.919e-8
0.331, -6.219e-7
0.330, -1.219e-6
0.329, -1.781e-6
0.328, -2.274e-6
0.327, -2.780e-6
0.326, -3.173e-6
0.325, -3.576e-6
0.324, -3.894e-6
0.323, -4.231e-6
0.322, -4.511e-6
0.321, -4.802e-6
0.320, -4.976e-6
0.319, -5.286e-6
0.318, -5.468e-6
0.317, -5.668e-6
0.316, -5.861e-6
0.315, -5.993e-6
0.314, -6.153e-6
0.313, -6.345e-6
0.312, -6.470e-6
0.311, -6.587e-6
0.310, -6.694e-6
0.309, -6.808e-6
0.308, -6.918e-6
0.307, -7.231e-6
0.306, -7.137e-6
0.305, -7.191e-6
0.304, -7.202e-6
0.303, -7.310e-6
0.302, -7.360e-6
0.301, -7.411e-6
0.300, -7.455e-6
0.299, -7.472e-6
0.298, -7.545e-6
0.297, -7.577e-6
0.296, -7.594e-6
0.295, -7.635e-6
0.294, -7.611e-6
0.293, -7.672e-6
0.292, -7.701e-6
0.291, -7.695e-6
0.290, -7.735e-6
0.289, -7.744e-6
0.288, -7.767e-6
0.287, -7.790e-6
0.286, -7.777e-6
0.285, -7.775e-6
0.284, -7.780e-6
0.283, -7.774e-6
0.282, -7.804e-6
0.281, -7.823e-6
0.280, -7.792e-6
0.279, -7.794e-6
0.278, -7.757e-6
0.277, -7.773e-6
0.276, -7.779e-6
0.275, -7.756e-6
0.274, -7.760e-6
0.273, -7.754e-6
0.272, -7.731e-6
0.271, -7.738e-6
0.270, -7.720e-6
0.269, -7.691e-6
0.268, -7.706e-6
0.267, -7.687e-6
0.266, -7.667e-6
0.265, -7.677e-6
0.264, -7.661e-6
0.263, -7.656e-6
0.262, -7.636e-6
0.261, -7.616e-6
0.260, -7.635e-6
0.259, -7.602e-6
0.258, -7.578e-6
0.257, -7.590e-6
0.256, -7.603e-6
0.255, -7.560e-6
0.254, -7.549e-6
0.253, -7.519e-6
0.252, -7.556e-6
0.251, -7.518e-6
0.250, -7.504e-6
0.249, -7.500e-6
0.248, -7.442e-6
0.247, -7.487e-6
0.246, -7.467e-6
0.245, -7.429e-6
0.244, -7.444e-6
0.243, -7.388e-6
0.242, -7.415e-6
0.241, -7.426e-6
0.240, -4.690e-6
0.241, -3.284e-7
0.242, 9.297e-7
0.243, 1.585e-6
0.244, 2.073e-6
0.245, 2.449e-6
0.246, 2.830e-6
0.247, 3.110e-6
0.248, 3.367e-6
0.249, 3.660e-6
0.250, 3.865e-6
0.251, 4.107e-6
0.252, 4.299e-6
0.253, 4.473e-6
0.254, 4.689e-6
0.255, 4.871e-6
0.256, 5.038e-6
0.257, 5.220e-6
0.258, 5.379e-6
0.259, 5.564e-6
0.260, 5.696e-6
0.261, 5.842e-6
0.262, 6.010e-6
0.263, 6.170e-6
0.264, 6.329e-6
0.265, 6.465e-6
0.266, 6.609e-6
0.267, 6.779e-6
0.268, 6.920e-6
0.269, 7.023e-6
0.270, 7.208e-6
0.271, 7.397e-6
0.272, 7.512e-6
0.273, 7.683e-6
0.274, 7.817e-6
0.275, 7.972e-6
0.276, 8.160e-6
0.277, 8.290e-6
0.278, 8.461e-6
0.279, 8.624e-6
0.280, 8.761e-6
0.281, 8.963e-6
0.282, 9.139e-6
0.283, 9.284e-6
0.284, 9.450e-6
0.285, 9.597e-6
0.286, 9.784e-6
0.287, 9.970e-6
0.288, 1.014e-5
0.289, 1.033e-5
0.290, 1.050e-5
0.291, 1.072e-5
0.292, 1.090e-5
0.293, 1.107e-5
0.294, 1.126e-5
0.295, 1.146e-5
0.296, 1.166e-5
0.297, 1.187e-5
0.298, 1.208e-5
0.299, 1.233e-5
0.300, 1.252e-5
0.301, 1.274e-5
0.302, 1.296e-5
0.303, 1.318e-5
0.304, 1.341e-5
0.305, 1.364e-5
0.306, 1.388e-5
0.307, 1.430e-5
0.308, 1.452e-5
0.309, 1.466e-5
0.310, 1.491e-5
0.311, 1.519e-5
0.312, 1.544e-5
0.313, 1.571e-5
0.314, 1.596e-5
0.315, 1.624e-5
0.316, 1.653e-5
0.317, 1.680e-5
0.318, 1.713e-5
0.319, 1.740e-5
0.320, 1.765e-5
0.321, 1.797e-5
0.322, 1.830e-5
0.323, 1.863e-5
0.324, 1.896e-5
0.325, 1.926e-5
0.326, 1.959e-5
0.327, 1.999e-5
0.328, 2.028e-5
0.329, 2.066e-5
0.330, 2.100e-5
0.331, 2.138e-5
0.332, 2.175e-5
0.333, 2.214e-5
0.334, 2.252e-5
0.335, 2.291e-5
0.336, 2.326e-5
0.337, 2.367e-5
0.338, 2.406e-5
0.339, 2.449e-5
0.340, 2.034e-5
0.339, 1.144e-5
0.338, 7.806e-6
0.337, 5.652e-6
0.336, 4.083e-6
0.335, 2.781e-6
0.334, 1.730e-6
0.333, 7.866e-7
0.332, -1.684e-8
0.331, -6.984e-7
0.330, -1.335e-6
0.329, -1.881e-6
0.328, -2.355e-6
0.327, -2.859e-6
0.326, -3.276e-6
0.325, -3.624e-6
0.324, -4.000e-6
0.323, -4.292e-6
0.322, -4.597e-6
0.321, -4.853e-6
0.320, -5.018e-6
0.319, -5.328e-6
0.318, -5.561e-6
0.317, -5.756e-6
0.316, -5.953e-6
0.315, -6.059e-6
0.314, -6.262e-6
0.313, -6.398e-6
0.312, -6.500e-6
0.311, -6.654e-6
0.310, -6.765e-6
0.309, -6.855e-6
0.308, -6.966e-6
0.307, -7.281e-6
0.306, -7.188e-6
0.305, -7.251e-6
0.304, -7.287e-6
0.303, -7.391e-6
0.302, -7.396e-6
0.301, -7.459e-6
0.300, -7.524e-6
0.299, -7.535e-6
0.298, -7.562e-6
0.297, -7.636e-6
0.296, -7.644e-6
0.295, -7.677e-6
0.294, -7.662e-6
0.293, -7.719e-6
0.292, -7.749e-6
0.291, -7.745e-6
0.290, -7.758e-6
0.289, -7.801e-6
0.288, -7.781e-6
0.287, -7.832e-6
0.286, -7.811e-6
0.285, -7.816e-6
0.284, -7.850e-6
0.283, -7.830e-6
0.282, -7.832e-6
0.281, -7.881e-6
0.280, -7.816e-6
0.279, -7.842e-6
0.278, -7.814e-6
0.277, -7.820e-6
0.276, -7.827e-6
0.275, -7.806e-6
0.274, -7.790e-6
0.273, -7.771e-6
0.272, -7.772e-6
0.271, -7.767e-6
0.270, -7.742e-6
0.269, -7.724e-6
0.268, -7.733e-6
0.267, -7.718e-6
0.266, -7.699e-6
0.265, -7.719e-6
0.264, -7.709e-6
0.263, -7.684e-6
0.262, -7.668e-6
0.261, -7.673e-6
0.260, -7.653e-6
0.259, -7.626e-6
0.258, -7.631e-6
0.257, -7.639e-6
0.256, -7.613e-6
0.255, -7.598e-6
0.254, -7.615e-6
0.253, -7.573e-6
0.252, -7.569e-6
0.251, -7.553e-6
0.250, -7.531e-6
0.249, -7.544e-6
0.248, -7.495e-6
0.247, -7.503e-6
0.246, -7.486e-6
0.245, -7.479e-6
0.244, -7.494e-6
0.243, -7.443e-6
0.242, -7.440e-6
0.241, -7.465e-6
0.240, -4.731e-6
0.241, -3.536e-7
0.242, 8.981e-7
0.243, 1.537e-6
0.244, 2.044e-6
0.245, 2.426e-6
0.246, 2.793e-6
0.247, 3.091e-6
0.248, 3.352e-6
0.249, 3.626e-6
0.250, 3.834e-6
0.251, 4.065e-6
0.252, 4.264e-6
0.253, 4.439e-6
0.254, 4.645e-6
0.255, 4.834e-6
0.256, 5.019e-6
0.257, 5.195e-6
0.258, 5.319e-6
0.259, 5.494e-6
0.260, 5.664e-6
0.261, 5.821e-6
0.262, 5.982e-6
0.263, 6.138e-6
0.264, 6.247e-6
0.265, 6.444e-6
0.266, 6.564e-6
0.267, 6.748e-6
0.268, 6.892e-6
0.269, 6.971e-6
0.270, 7.168e-6
0.271, 7.334e-6
0.272, 7.447e-6
0.273, 7.630e-6
0.274, 7.760e-6
0.275, 7.934e-6
0.276, 8.096e-6
0.277, 8.229e-6
0.278, 8.421e-6
0.279, 8.569e-6
0.280, 8.718e-6
0.281, 8.917e-6
0.282, 9.091e-6
0.283, 9.214e-6
0.284, 9.420e-6
0.285, 9.552e-6
0.286, 9.751e-6
0.287, 9.908e-6
0.288, 1.009e-5
0.289, 1.031e-5
0.290, 1.048e-5
0.291, 1.064e-5
0.292, 1.084e-5
0.293, 1.100e-5
0.294, 1.120e-5
0.295, 1.141e-5
0.296, 1.159e-5
0.297, 1.181e-5
0.298, 1.199e-5
0.299, 1.223e-5
0.300, 1.247e-5
0.301, 1.266e-5
0.302, 1.289e-5
0.303, 1.313e-5
0.304, 1.332e-5
0.305, 1.359e-5
0.306, 1.379e-5
0.307, 1.421e-5
0.308, 1.443e-5
0.309, 1.463e-5
0.310, 1.487e-5
0.311, 1.511e-5
0.312, 1.535e-5
0.313, 1.564e-5
0.314, 1.591e-5
0.315, 1.617e-5
0.316, 1.646e-5
0.317, 1.673e-5
0.318, 1.703e-5
0.319, 1.736e-5
0.320, 1.757e-5
0.321, 1.790e-5
0.322, 1.821e-5
0.323, 1.850e-5
0.324, 1.887e-5
0.325, 1.920e-5
0.326, 1.954e-5
0.327, 1.990e-5
0.328, 2.022e-5
0.329, 2.057e-5
0.330, 2.092e-5
0.331, 2.128e-5
0.332, 2.166e-5
0.333, 2.205e-5
0.334, 2.243e-5
0.335, 2.279e-5
0.336, 2.318e-5
0.337, 2.357e-5
0.338, 2.398e-5
0.339, 2.439e-5
0.340, 2.026e-5
0.339, 1.138e-5
0.338, 7.717e-6
0.337, 5.558e-6
0.336, 3.981e-6
0.335, 2.692e-6
0.334, 1.660e-6
0.333, 7.165e-7
0.332, -1.080e-7
0.331, -7.452e-7
0.330, -1.359e-6
0.329, -1.955e-6
0.328, -2.447e-6
0.327, -2.907e-6
0.326, -3.317e-6
0.325, -3.702e-6
0.324, -4.045e-6
0.323, -4.334e-6
0.322, -4.633e-6
0.321, -4.926e-6
0.320, -5.114e-6
0.319, -5.377e-6
0.318, -5.576e-6
0.317, -5.794e-6
0.316, -5.984e-6
0.315, -6.135e-6
0.314, -6.302e-6
0.313, -6.430e-6
0.312, -6.565e-6
0.311, -6.718e-6
0.310, -6.782e-6
0.309, -6.894e-6
0.308, -7.019e-6
0.307, -7.312e-6
0.306, -7.248e-6
0.305, -7.288e-6
0.304, -7.336e-6
0.303, -7.384e-6
0.302, -7.413e-6
0.301, -7.471e-6
0.300, -7.566e-6
0.299, -7.574e-6
0.298, -7.625e-6
0.297, -7.676e-6
0.296, -7.666e-6
0.295, -7.710e-6
0.294, -7.716e-6
0.293, -7.767e-6
0.292, -7.803e-6
0.291, -7.772e-6
0.290, -7.799e-6
0.289, -7.835e-6
0.288, -7.817e-6
0.287, -7.863e-6
0.286, -7.838e-6
0.285, -7.828e-6
0.284, -7.860e-6
0.283, -7.862e-6
0.282, -7.899e-6
0.281, -7.887e-6
0.280, -7.857e-6
0.279, -7.860e-6
0.278, -7.864e-6
0.277, -7.841e-6
0.276, -7.853e-6
0.275, -7.848e-6
0.274, -7.815e-6
0.273, -7.820e-6
0.272, -7.790e-6
0.271, -7.820e-6
0.270, -7.778e-6
0.269, -7.754e-6
0.268, -7.761e-6
0.267, -7.746e-6
0.266, -7.733e-6
0.265, -7.727e-6
0.264, -7.709e-6
0.263, -7.718e-6
0.262, -7.708e-6
0.261, -7.699e-6
0.260, -7.706e-6
0.259, -7.669e-6
0.258, -7.626e-6
0.257, -7.649e-6
0.256, -7.665e-6
0.255, -7.632e-6
0.254, -7.596e-6
0.253, -7.616e-6
0.252, -7.590e-6
0.251, -7.575e-6
0.250, -7.563e-6
0.249, -7.560e-6
0.248, -7.540e-6
0.247, -7.561e-6
0.246, -7.519e-6
0.245, -7.524e-6
0.244, -7.517e-6
0.243, -7.455e-6
0.242, -7.498e-6
0.241, -7.490e-6
0.240, -4.734e-6
0.241, -3.905e-7
0.242, 8.721e-7
0.243, 1.511e-6
0.244, 2.017e-6
0.245, 2.402e-6
0.246, 2.750e-6
0.247, 3.070e-6
0.248, 3.324e-6
0.249, 3.599e-6
0.250, 3.818e-6
0.251, 4.032e-6
0.252, 4.240e-6
0.253, 4.420e-6
0.254, 4.616e-6
0.255, 4.810e-6
0.256, 4.982e-6
0.257, 5.141e-6
0.258, 5.317e-6
0.259, 5.481e-6
0.260, 5.627e-6
0.261, 5.785e-6
0.262, 5.956e-6
0.263, 6.095e-6
0.264, 6.240e-6
0.265, 6.403e-6
0.266, 6.535e-6
0.267, 6.681e-6
0.268, 6.863e-6
0.269, 6.949e-6
0.270, 7.116e-6
0.271, 7.293e-6
0.272, 7.420e-6
0.273, 7.610e-6
0.274, 7.760e-6
0.275, 7.904e-6
0.276, 8.064e-6
0.277, 8.204e-6
0.278, 8.379e-6
0.279, 8.525e-6
0.280, 8.680e-6
0.281, 8.872e-6
0.282, 9.053e-6
0.283, 9.183e-6
0.284, 9.371e-6
0.285, 9.524e-6
0.286, 9.712e-6
0.287, 9.902e-6
0.288, 1.004e-5
0.289, 1.026e-5
0.290, 1.041e-5
0.291, 1.059e-5
0.292, 1.079e-5
0.293, 1.096e-5
0.294, 1.117e-5
0.295, 1.135e-5
0.296, 1.152e-5
0.297, 1.177e-5
0.298, 1.197e-5
0.299, 1.218e-5
0.300, 1.241e-5
0.301, 1.261e-5
0.302, 1.283e-5
0.303, 1.309e-5
0.304, 1.327e-5
0.305, 1.354e-5
0.306, 1.375e-5
0.307, 1.419e-5
0.308, 1.438e-5
0.309, 1.454e-5
0.310, 1.477e-5
0.311, 1.505e-5
0.312, 1.528e-5
0.313, 1.558e-5
0.314, 1.586e-5
0.315, 1.612e-5
0.316, 1.638e-5
0.317, 1.668e-5
0.318, 1.699e-5
0.319, 1.726e-5
0.320, 1.749e-5
0.321, 1.786e-5
0.322, 1.816e-5
0.323, 1.849e-5
0.324, 1.881e-5
0.325, 1.911e-5
0.326, 1.947e-5
0.327, 1.978e-5
0.328, 2.014e-5
0.329, 2.051e-5
0.330, 2.082e-5
0.331, 2.117e-5
0.332, 2.157e-5
0.333, 2.198e-5
0.334, 2.234e-5
0.335, 2.274e-5
0.336, 2.307e-5
0.337, 2.351e-5
0.338, 2.389e-5
0.339, 2.433e-5
0.340, 2.015e-5
0.339, 1.132e-5
0.338, 7.664e-6
0.337, 5.486e-6
0.336, 3.926e-6
0.335, 2.654e-6
0.334, 1.605e-6
0.333, 6.472e-7
0.332, -1.771e-7
0.331, -8.022e-7
0.330, -1.432e-6
0.329, -2.008e-6
0.328, -2.485e-6
0.327, -2.944e-6
0.326, -3.352e-6
0.325, -3.745e-6
0.324, -4.090e-6
0.323, -4.389e-6
0.322, -4.682e-6
0.321, -4.954e-6
0.320, -5.134e-6
0.319, -5.425e-6
0.318, -5.631e-6
0.317, -5.830e-6
0.316, -6.009e-6
0.315, -6.167e-6
0.314, -6.340e-6
0.313, -6.478e-6
0.312, -6.584e-6
0.311, -6.757e-6
0.310, -6.795e-6
0.309, -6.925e-6
0.308, -7.061e-6
0.307, -7.349e-6
0.306, -7.271e-6
0.305, -7.336e-6
0.304, -7.331e-6
0.303, -7.417e-6
0.302, -7.483e-6
0.301, -7.536e-6
0.300, -7.597e-6
0.299, -7.610e-6
0.298, -7.620e-6
0.297, -7.684e-6
0.296, -7.705e-6
0.295, -7.736e-6
0.294, -7.709e-6
0.293, -7.796e-6
0.292, -7.836e-6
0.291, -7.794e-6
0.290, -7.826e-6
0.289, -7.866e-6
0.288, -7.864e-6
0.287, -7.873e-6
0.286, -7.872e-6
0.285, -7.855e-6
0.284, -7.894e-6
0.283, -7.888e-6
0.282, -7.880e-6
0.281, -7.900e-6
0.280, -7.888e-6
0.279, -7.901e-6
0.278, -7.874e-6
0.277, -7.848e-6
0.276, -7.857e-6
0.275, -7.841e-6
0.274, -7.863e-6
0.273, -7.843e-6
0.272, -7.827e-6
0.271, -7.815e-6
0.270, -7.823e-6
0.269, -7.775e-6
0.268, -7.794e-6
0.267, -7.753e-6
0.266, -7.760e-6
0.265, -7.766e-6
0.264, -7.730e-6
0.263, -7.745e-6
0.262, -7.727e-6
0.261, -7.702e-6
0.260, -7.699e-6
0.259, -7.669e-6
0.258, -7.654e-6
0.257, -7.688e-6
0.256, -7.678e-6
0.255, -7.666e-6
0.254, -7.617e-6
0.253, -7.609e-6
0.252, -7.607e-6
0.251, -7.593e-6
0.250, -7.574e-6
0.249, -7.589e-6
0.248, -7.559e-6
0.247, -7.564e-6
0.246, -7.533e-6
0.245, -7.535e-6
0.244, -7.542e-6
0.243, -7.493e-6
0.242, -7.492e-6
0.241, -7.520e-6
0.240, -4.769e-6
0.241, -4.043e-7
0.242, 8.532e-7
0.243, 1.483e-6
0.244, 2.004e-6
0.245, 2.391e-6
0.246, 2.737e-6
0.247, 3.046e-6
0.248, 3.305e-6
0.249, 3.576e-6
0.250, 3.791e-6
0.251, 4.007e-6
0.252, 4.232e-6
0.253, 4.375e-6
0.254, 4.612e-6
0.255, 4.782e-6
0.256, 4.963e-6
0.257, 5.154e-6
0.258, 5.279e-6
0.259, 5.441e-6
0.260, 5.611e-6
0.261, 5.761e-6
0.262, 5.945e-6
0.263, 6.087e-6
0.264, 6.213e-6
0.265, 6.372e-6
0.266, 6.512e-6
0.267, 6.670e-6
0.268, 6.821e-6
0.269, 6.931e-6
0.270, 7.125e-6
0.271, 7.261e-6
0.272, 7.402e-6
0.273, 7.580e-6
0.274, 7.694e-6
0.275, 7.883e-6
0.276, 8.060e-6
0.277, 8.181e-6
0.278, 8.348e-6
0.279, 8.495e-6
0.280, 8.667e-6
0.281, 8.837e-6
0.282, 9.015e-6
0.283, 9.176e-6
0.284, 9.320e-6
0.285, 9.482e-6
0.286, 9.686e-6
0.287, 9.853e-6
0.288, 9.999e-6
0.289, 1.021e-5
0.290, 1.037e-5
0.291, 1.055e-5
0.292, 1.076e-5
0.293, 1.093e-5
0.294, 1.114e-5
0.295, 1.131e-5
0.296, 1.150e-5
0.297, 1.174e-5
0.298, 1.191e-5
0.299, 1.214e-5
0.300, 1.239e-5
0.301, 1.257e-5
0.302, 1.278e-5
0.303, 1.302e-5
0.304, 1.326e-5
0.305, 1.350e-5
0.306, 1.374e-5
0.307, 1.412e-5
0.308, 1.434e-5
0.309, 1.450e-5
0.310, 1.474e-5
0.311, 1.500e-5
0.312, 1.527e-5
0.313, 1.552e-5
0.314, 1.580e-5
0.315, 1.606e-5
0.316, 1.634e-5
0.317, 1.663e-5
0.318, 1.691e-5
0.319, 1.722e-5
0.320, 1.745e-5
0.321, 1.778e-5
0.322, 1.809e-5
0.323, 1.843e-5
0.324, 1.875e-5
0.325, 1.907e-5
0.326, 1.940e-5
0.327, 1.978e-5
0.328, 2.007e-5
0.329, 2.042e-5
0.330, 2.075e-5
0.331, 2.114e-5
0.332, 2.153e-5
0.333, 2.191e-5
0.334, 2.228e-5
0.335, 2.267e-5
0.336, 2.300e-5
0.337, 2.344e-5
0.338, 2.383e-5
0.339, 2.423e-5
0.340, 2.009e-5
0.339, 1.123e-5
0.338, 7.607e-6
0.337, 5.456e-6
0.336, 3.879e-6
0.335, 2.592e-6
0.334, 1.590e-6
0.333, 5.951e-7
0.332, -1.975e-7
0.331, -8.615e-7
0.330, -1.469e-6
0.329, -2.057e-6
0.328, -2.508e-6
0.327, -2.966e-6
0.326, -3.375e-6
0.325, -3.771e-6
0.324, -4.127e-6
0.323, -4.414e-6
0.322, -4.708e-6
0.321, -5.014e-6
0.320, -5.184e-6
0.319, -5.446e-6
0.318, -5.641e-6
0.317, -5.873e-6
0.316, -6.062e-6
0.315, -6.168e-6
0.314, -6.363e-6
0.313, -6.520e-6
0.312, -6.612e-6
0.311, -6.774e-6
0.310, -6.838e-6
0.309, -6.948e-6
0.308, -7.081e-6
0.307, -7.359e-6
0.306, -7.303e-6
0.305, -7.341e-6
0.304, -7.387e-6
0.303, -7.458e-6
0.302, -7.492e-6
0.301, -7.569e-6
0.300, -7.607e-6
0.299, -7.647e-6
0.298, -7.631e-6
0.297, -7.708e-6
0.296, -7.735e-6
0.295, -7.747e-6
0.294, -7.753e-6
0.293, -7.810e-6
0.292, -7.842e-6
0.291, -7.835e-6
0.290, -7.846e-6
0.289, -7.856e-6
0.288, -7.864e-6
0.287, -7.895e-6
0.286, -7.884e-6
0.285, -7.900e-6
0.284, -7.912e-6
0.283, -7.913e-6
0.282, -7.925e-6
0.281, -7.945e-6
0.280, -7.907e-6
0.279, -7.886e-6
0.278, -7.877e-6
0.277, -7.900e-6
0.276, -7.892e-6
0.275, -7.870e-6
0.274, -7.859e-6
0.273, -7.864e-6
0.272, -7.832e-6
0.271, -7.855e-6
0.270, -7.806e-6
0.269, -7.759e-6
0.268, -7.807e-6
0.267, -7.793e-6
0.266, -7.768e-6
0.265, -7.783e-6
0.264, -7.758e-6
0.263, -7.752e-6
0.262, -7.727e-6
0.261, -7.719e-6
0.260, -7.724e-6
0.259, -7.717e-6
0.258, -7.672e-6
0.257, -7.687e-6
0.256, -7.673e-6
0.255, -7.682e-6
0.254, -7.631e-6
0.253, -7.638e-6
0.252, -7.635e-6
0.251, -7.607e-6
0.250, -7.608e-6
0.249, -7.603e-6
0.248, -7.583e-6
0.247, -7.582e-6
0.246, -7.559e-6
0.245, -7.554e-6
0.244, -7.552e-6
0.243, -7.488e-6
0.242, -7.531e-6
0.241, -7.530e-6
