Sept. 21, 2026   17:24:14
Cyclic Voltammetry
File: d:\desktop\sample\ss310 1 cm2\ss310_sheet cv 120 mv.bin
Data Source:  Experiment
Instrument Model:  CHI660D
Header: 
Note: 

Init E (V) = 0.24
High E (V) = 0.34
Low E (V) = 0.24
Init P/N = P
Scan Rate (V/s) = 0.12
Segment = 20
Sample Interval (V) = 0.001
Quiet Time (sec) = 2
Sensitivity (A/V) = 1e-5

Results:

Channel 1:
Segment 1:

Segment 2:

Segment 3:

Segment 4:

Segment 5:

Segment 6:

Segment 7:

Segment 8:

Segment 9:

Segment 10:

Segment 11:

Segment 12:

Segment 13:

Segment 14:

Segment 15:

Segment 16:

Segment 17:

Segment 18:

Segment 19:

Segment 20:

Potential/V, Current/A

0.240, 5.088e-6
0.241, 7.154e-6
0.242, 7.724e-6
0.243, 8.040e-6
0.244, 8.404e-6
0.245, 8.684e-6
0.246, 8.902e-6
0.247, 9.198e-6
0.248, 9.331e-6
0.249, 9.602e-6
0.250, 9.741e-6
0.251, 9.936e-6
0.252, 1.013e-5
0.253, 1.028e-5
0.254, 1.043e-5
0.255, 1.066e-5
0.256, 1.081e-5
0.257, 1.099e-5
0.258, 1.115e-5
0.259, 1.134e-5
0.260, 1.151e-5
0.261, 1.162e-5
0.262, 1.184e-5
0.263, 1.205e-5
0.264, 1.218e-5
0.265, 1.233e-5
0.266, 1.250e-5
0.267, 1.269e-5
0.268, 1.289e-5
0.269, 1.300e-5
0.270, 1.324e-5
0.271, 1.343e-5
0.272, 1.361e-5
0.273, 1.380e-5
0.274, 1.400e-5
0.275, 1.420e-5
0.276, 1.444e-5
0.277, 1.461e-5
0.278, 1.478e-5
0.279, 1.499e-5
0.280, 1.521e-5
0.281, 1.549e-5
0.282, 1.573e-5
0.283, 1.589e-5
0.284, 1.612e-5
0.285, 1.634e-5
0.286, 1.652e-5
0.287, 1.685e-5
0.288, 1.705e-5
0.289, 1.727e-5
0.290, 1.758e-5
0.291, 1.780e-5
0.292, 1.808e-5
0.293, 1.832e-5
0.294, 1.847e-5
0.295, 1.887e-5
0.296, 1.911e-5
0.297, 1.940e-5
0.298, 1.968e-5
0.299, 1.996e-5
0.300, 2.027e-5
0.301, 2.061e-5
0.302, 2.083e-5
0.303, 2.120e-5
0.304, 2.147e-5
0.305, 2.181e-5
0.306, 2.216e-5
0.307, 2.276e-5
0.308, 2.291e-5
0.309, 2.319e-5
0.310, 2.347e-5
0.311, 2.393e-5
0.312, 2.418e-5
0.313, 2.460e-5
0.314, 2.498e-5
0.315, 2.532e-5
0.316, 2.567e-5
0.317, 2.606e-5
0.318, 2.646e-5
0.319, 2.691e-5
0.320, 2.716e-5
0.321, 2.771e-5
0.322, 2.811e-5
0.323, 2.850e-5
0.324, 2.899e-5
0.325, 2.936e-5
0.326, 2.980e-5
0.327, 3.038e-5
0.328, 3.072e-5
0.329, 3.122e-5
0.330, 3.171e-5
0.331, 3.219e-5
0.332, 3.269e-5
0.333, 3.324e-5
0.334, 3.368e-5
0.335, 3.427e-5
0.336, 3.466e-5
0.337, 3.522e-5
0.338, 3.579e-5
0.339, 3.635e-5
0.340, 2.625e-5
0.339, 1.618e-5
0.338, 1.246e-5
0.337, 9.841e-6
0.336, 7.966e-6
0.335, 6.240e-6
0.334, 4.843e-6
0.333, 3.504e-6
0.332, 2.525e-6
0.331, 1.558e-6
0.330, 8.013e-7
0.329, -1.172e-7
0.328, -7.163e-7
0.327, -1.415e-6
0.326, -2.044e-6
0.325, -2.563e-6
0.324, -3.044e-6
0.323, -3.564e-6
0.322, -3.967e-6
0.321, -4.390e-6
0.320, -4.636e-6
0.319, -5.104e-6
0.318, -5.402e-6
0.317, -5.660e-6
0.316, -6.071e-6
0.315, -6.223e-6
0.314, -6.489e-6
0.313, -6.736e-6
0.312, -6.940e-6
0.311, -7.131e-6
0.310, -7.369e-6
0.309, -7.474e-6
0.308, -7.740e-6
0.307, -8.087e-6
0.306, -8.055e-6
0.305, -8.155e-6
0.304, -8.172e-6
0.303, -8.337e-6
0.302, -8.455e-6
0.301, -8.532e-6
0.300, -8.629e-6
0.299, -8.709e-6
0.298, -8.810e-6
0.297, -8.922e-6
0.296, -8.890e-6
0.295, -8.958e-6
0.294, -9.020e-6
0.293, -9.058e-6
0.292, -9.149e-6
0.291, -9.176e-6
0.290, -9.245e-6
0.289, -9.342e-6
0.288, -9.258e-6
0.287, -9.323e-6
0.286, -9.366e-6
0.285, -9.325e-6
0.284, -9.434e-6
0.283, -9.475e-6
0.282, -9.479e-6
0.281, -9.516e-6
0.280, -9.501e-6
0.279, -9.423e-6
0.278, -9.528e-6
0.277, -9.515e-6
0.276, -9.549e-6
0.275, -9.545e-6
0.274, -9.512e-6
0.273, -9.595e-6
0.272, -9.490e-6
0.271, -9.483e-6
0.270, -9.562e-6
0.269, -9.459e-6
0.268, -9.485e-6
0.267, -9.509e-6
0.266, -9.500e-6
0.265, -9.551e-6
0.264, -9.472e-6
0.263, -9.483e-6
0.262, -9.505e-6
0.261, -9.491e-6
0.260, -9.483e-6
0.259, -9.448e-6
0.258, -9.449e-6
0.257, -9.458e-6
0.256, -9.511e-6
0.255, -9.425e-6
0.254, -9.460e-6
0.253, -9.395e-6
0.252, -9.400e-6
0.251, -9.403e-6
0.250, -9.407e-6
0.249, -9.453e-6
0.248, -9.332e-6
0.247, -9.314e-6
0.246, -9.391e-6
0.245, -9.320e-6
0.244, -9.362e-6
0.243, -9.306e-6
0.242, -9.309e-6
0.241, -9.345e-6
0.240, -2.992e-6
0.241, 1.357e-6
0.242, 2.457e-6
0.243, 3.187e-6
0.244, 3.792e-6
0.245, 4.329e-6
0.246, 4.701e-6
0.247, 5.125e-6
0.248, 5.456e-6
0.249, 5.803e-6
0.250, 6.053e-6
0.251, 6.371e-6
0.252, 6.625e-6
0.253, 6.830e-6
0.254, 7.099e-6
0.255, 7.380e-6
0.256, 7.549e-6
0.257, 7.830e-6
0.258, 8.033e-6
0.259, 8.218e-6
0.260, 8.457e-6
0.261, 8.596e-6
0.262, 8.810e-6
0.263, 9.075e-6
0.264, 9.214e-6
0.265, 9.459e-6
0.266, 9.642e-6
0.267, 9.833e-6
0.268, 1.004e-5
0.269, 1.018e-5
0.270, 1.039e-5
0.271, 1.068e-5
0.272, 1.077e-5
0.273, 1.105e-5
0.274, 1.122e-5
0.275, 1.141e-5
0.276, 1.165e-5
0.277, 1.185e-5
0.278, 1.199e-5
0.279, 1.232e-5
0.280, 1.245e-5
0.281, 1.272e-5
0.282, 1.289e-5
0.283, 1.316e-5
0.284, 1.339e-5
0.285, 1.357e-5
0.286, 1.379e-5
0.287, 1.410e-5
0.288, 1.429e-5
0.289, 1.449e-5
0.290, 1.479e-5
0.291, 1.499e-5
0.292, 1.528e-5
0.293, 1.549e-5
0.294, 1.573e-5
0.295, 1.609e-5
0.296, 1.627e-5
0.297, 1.654e-5
0.298, 1.682e-5
0.299, 1.716e-5
0.300, 1.742e-5
0.301, 1.771e-5
0.302, 1.798e-5
0.303, 1.833e-5
0.304, 1.855e-5
0.305, 1.892e-5
0.306, 1.923e-5
0.307, 1.987e-5
0.308, 1.999e-5
0.309, 2.028e-5
0.310, 2.058e-5
0.311, 2.094e-5
0.312, 2.125e-5
0.313, 2.165e-5
0.314, 2.200e-5
0.315, 2.232e-5
0.316, 2.274e-5
0.317, 2.307e-5
0.318, 2.347e-5
0.319, 2.395e-5
0.320, 2.418e-5
0.321, 2.469e-5
0.322, 2.511e-5
0.323, 2.551e-5
0.324, 2.595e-5
0.325, 2.635e-5
0.326, 2.680e-5
0.327, 2.733e-5
0.328, 2.766e-5
0.329, 2.822e-5
0.330, 2.866e-5
0.331, 2.920e-5
0.332, 2.967e-5
0.333, 3.025e-5
0.334, 3.066e-5
0.335, 3.121e-5
0.336, 3.163e-5
0.337, 3.224e-5
0.338, 3.274e-5
0.339, 3.329e-5
0.340, 2.325e-5
0.339, 1.324e-5
0.338, 9.585e-6
0.337, 7.097e-6
0.336, 5.322e-6
0.335, 3.656e-6
0.334, 2.356e-6
0.333, 1.101e-6
0.332, 6.962e-8
0.331, -7.916e-7
0.330, -1.573e-6
0.329, -2.292e-6
0.328, -2.904e-6
0.327, -3.549e-6
0.326, -4.148e-6
0.325, -4.529e-6
0.324, -5.102e-6
0.323, -5.398e-6
0.322, -5.872e-6
0.321, -6.268e-6
0.320, -6.391e-6
0.319, -6.854e-6
0.318, -7.141e-6
0.317, -7.375e-6
0.316, -7.649e-6
0.315, -7.853e-6
0.314, -8.112e-6
0.313, -8.292e-6
0.312, -8.452e-6
0.311, -8.600e-6
0.310, -8.784e-6
0.309, -8.937e-6
0.308, -9.182e-6
0.307, -9.433e-6
0.306, -9.383e-6
0.305, -9.525e-6
0.304, -9.472e-6
0.303, -9.606e-6
0.302, -9.765e-6
0.301, -9.783e-6
0.300, -9.861e-6
0.299, -9.905e-6
0.298, -9.968e-6
0.297, -1.008e-5
0.296, -1.005e-5
0.295, -1.007e-5
0.294, -1.013e-5
0.293, -1.012e-5
0.292, -1.025e-5
0.291, -1.025e-5
0.290, -1.026e-5
0.289, -1.032e-5
0.288, -1.028e-5
0.287, -1.033e-5
0.286, -1.037e-5
0.285, -1.033e-5
0.284, -1.040e-5
0.283, -1.033e-5
0.282, -1.043e-5
0.281, -1.047e-5
0.280, -1.036e-5
0.279, -1.041e-5
0.278, -1.036e-5
0.277, -1.038e-5
0.276, -1.040e-5
0.275, -1.038e-5
0.274, -1.040e-5
0.273, -1.039e-5
0.272, -1.029e-5
0.271, -1.034e-5
0.270, -1.037e-5
0.269, -1.027e-5
0.268, -1.027e-5
0.267, -1.033e-5
0.266, -1.028e-5
0.265, -1.030e-5
0.264, -1.024e-5
0.263, -1.026e-5
0.262, -1.024e-5
0.261, -1.022e-5
0.260, -1.021e-5
0.259, -1.018e-5
0.258, -1.019e-5
0.257, -1.020e-5
0.256, -1.015e-5
0.255, -1.016e-5
0.254, -1.012e-5
0.253, -1.009e-5
0.252, -1.010e-5
0.251, -1.007e-5
0.250, -1.008e-5
0.249, -1.008e-5
0.248, -1.002e-5
0.247, -9.999e-6
0.246, -1.001e-5
0.245, -9.975e-6
0.244, -9.982e-6
0.243, -9.956e-6
0.242, -9.966e-6
0.241, -9.953e-6
0.240, -3.597e-6
0.241, 7.519e-7
0.242, 1.931e-6
0.243, 2.652e-6
0.244, 3.246e-6
0.245, 3.789e-6
0.246, 4.154e-6
0.247, 4.618e-6
0.248, 4.895e-6
0.249, 5.287e-6
0.250, 5.540e-6
0.251, 5.852e-6
0.252, 6.086e-6
0.253, 6.367e-6
0.254, 6.519e-6
0.255, 6.841e-6
0.256, 7.064e-6
0.257, 7.301e-6
0.258, 7.497e-6
0.259, 7.686e-6
0.260, 7.895e-6
0.261, 8.120e-6
0.262, 8.316e-6
0.263, 8.557e-6
0.264, 8.679e-6
0.265, 8.943e-6
0.266, 9.070e-6
0.267, 9.316e-6
0.268, 9.484e-6
0.269, 9.607e-6
0.270, 9.848e-6
0.271, 1.010e-5
0.272, 1.019e-5
0.273, 1.052e-5
0.274, 1.069e-5
0.275, 1.087e-5
0.276, 1.109e-5
0.277, 1.127e-5
0.278, 1.145e-5
0.279, 1.174e-5
0.280, 1.185e-5
0.281, 1.213e-5
0.282, 1.239e-5
0.283, 1.255e-5
0.284, 1.276e-5
0.285, 1.296e-5
0.286, 1.319e-5
0.287, 1.346e-5
0.288, 1.364e-5
0.289, 1.389e-5
0.290, 1.412e-5
0.291, 1.439e-5
0.292, 1.464e-5
0.293, 1.488e-5
0.294, 1.505e-5
0.295, 1.540e-5
0.296, 1.561e-5
0.297, 1.588e-5
0.298, 1.617e-5
0.299, 1.645e-5
0.300, 1.674e-5
0.301, 1.700e-5
0.302, 1.730e-5
0.303, 1.763e-5
0.304, 1.784e-5
0.305, 1.821e-5
0.306, 1.847e-5
0.307, 1.917e-5
0.308, 1.924e-5
0.309, 1.955e-5
0.310, 1.982e-5
0.311, 2.022e-5
0.312, 2.046e-5
0.313, 2.092e-5
0.314, 2.120e-5
0.315, 2.152e-5
0.316, 2.199e-5
0.317, 2.230e-5
0.318, 2.265e-5
0.319, 2.312e-5
0.320, 2.332e-5
0.321, 2.384e-5
0.322, 2.428e-5
0.323, 2.461e-5
0.324, 2.510e-5
0.325, 2.554e-5
0.326, 2.592e-5
0.327, 2.645e-5
0.328, 2.683e-5
0.329, 2.734e-5
0.330, 2.775e-5
0.331, 2.821e-5
0.332, 2.875e-5
0.333, 2.935e-5
0.334, 2.972e-5
0.335, 3.026e-5
0.336, 3.071e-5
0.337, 3.135e-5
0.338, 3.177e-5
0.339, 3.239e-5
0.340, 2.235e-5
0.339, 1.234e-5
0.338, 8.743e-6
0.337, 6.283e-6
0.336, 4.379e-6
0.335, 2.857e-6
0.334, 1.459e-6
0.333, 2.863e-7
0.332, -6.782e-7
0.331, -1.548e-6
0.330, -2.309e-6
0.329, -3.081e-6
0.328, -3.640e-6
0.327, -4.253e-6
0.326, -4.838e-6
0.325, -5.257e-6
0.324, -5.751e-6
0.323, -6.172e-6
0.322, -6.443e-6
0.321, -6.915e-6
0.320, -7.089e-6
0.319, -7.460e-6
0.318, -7.776e-6
0.317, -7.958e-6
0.316, -8.235e-6
0.315, -8.420e-6
0.314, -8.617e-6
0.313, -8.845e-6
0.312, -8.991e-6
0.311, -9.181e-6
0.310, -9.316e-6
0.309, -9.426e-6
0.308, -9.676e-6
0.307, -1.002e-5
0.306, -9.819e-6
0.305, -9.999e-6
0.304, -1.001e-5
0.303, -1.009e-5
0.302, -1.025e-5
0.301, -1.020e-5
0.300, -1.033e-5
0.299, -1.037e-5
0.298, -1.038e-5
0.297, -1.051e-5
0.296, -1.046e-5
0.295, -1.052e-5
0.294, -1.055e-5
0.293, -1.059e-5
0.292, -1.065e-5
0.291, -1.061e-5
0.290, -1.068e-5
0.289, -1.072e-5
0.288, -1.070e-5
0.287, -1.071e-5
0.286, -1.071e-5
0.285, -1.072e-5
0.284, -1.078e-5
0.283, -1.075e-5
0.282, -1.080e-5
0.281, -1.081e-5
0.280, -1.070e-5
0.279, -1.073e-5
0.278, -1.074e-5
0.277, -1.073e-5
0.276, -1.075e-5
0.275, -1.069e-5
0.274, -1.075e-5
0.273, -1.072e-5
0.272, -1.065e-5
0.271, -1.068e-5
0.270, -1.069e-5
0.269, -1.058e-5
0.268, -1.064e-5
0.267, -1.056e-5
0.266, -1.058e-5
0.265, -1.065e-5
0.264, -1.054e-5
0.263, -1.058e-5
0.262, -1.054e-5
0.261, -1.053e-5
0.260, -1.048e-5
0.259, -1.051e-5
0.258, -1.049e-5
0.257, -1.046e-5
0.256, -1.048e-5
0.255, -1.043e-5
0.254, -1.042e-5
0.253, -1.041e-5
0.252, -1.039e-5
0.251, -1.038e-5
0.250, -1.034e-5
0.249, -1.037e-5
0.248, -1.034e-5
0.247, -1.029e-5
0.246, -1.034e-5
0.245, -1.028e-5
0.244, -1.028e-5
0.243, -1.023e-5
0.242, -1.023e-5
0.241, -1.023e-5
0.240, -3.869e-6
0.241, 5.245e-7
0.242, 1.700e-6
0.243, 2.351e-6
0.244, 3.056e-6
0.245, 3.520e-6
0.246, 3.895e-6
0.247, 4.425e-6
0.248, 4.656e-6
0.249, 5.030e-6
0.250, 5.314e-6
0.251, 5.598e-6
0.252, 5.888e-6
0.253, 6.065e-6
0.254, 6.327e-6
0.255, 6.641e-6
0.256, 6.797e-6
0.257, 7.064e-6
0.258, 7.241e-6
0.259, 7.412e-6
0.260, 7.719e-6
0.261, 7.861e-6
0.262, 8.066e-6
0.263, 8.306e-6
0.264, 8.436e-6
0.265, 8.639e-6
0.266, 8.875e-6
0.267, 9.000e-6
0.268, 9.268e-6
0.269, 9.362e-6
0.270, 9.572e-6
0.271, 9.897e-6
0.272, 9.978e-6
0.273, 1.022e-5
0.274, 1.038e-5
0.275, 1.063e-5
0.276, 1.082e-5
0.277, 1.098e-5
0.278, 1.117e-5
0.279, 1.141e-5
0.280, 1.155e-5
0.281, 1.191e-5
0.282, 1.207e-5
0.283, 1.229e-5
0.284, 1.248e-5
0.285, 1.269e-5
0.286, 1.288e-5
0.287, 1.317e-5
0.288, 1.334e-5
0.289, 1.360e-5
0.290, 1.383e-5
0.291, 1.406e-5
0.292, 1.431e-5
0.293, 1.455e-5
0.294, 1.474e-5
0.295, 1.507e-5
0.296, 1.526e-5
0.297, 1.562e-5
0.298, 1.582e-5
0.299, 1.610e-5
0.300, 1.639e-5
0.301, 1.671e-5
0.302, 1.692e-5
0.303, 1.730e-5
0.304, 1.753e-5
0.305, 1.784e-5
0.306, 1.812e-5
0.307, 1.880e-5
0.308, 1.888e-5
0.309, 1.913e-5
0.310, 1.942e-5
0.311, 1.977e-5
0.312, 2.010e-5
0.313, 2.049e-5
0.314, 2.078e-5
0.315, 2.119e-5
0.316, 2.149e-5
0.317, 2.191e-5
0.318, 2.226e-5
0.319, 2.271e-5
0.320, 2.289e-5
0.321, 2.340e-5
0.322, 2.381e-5
0.323, 2.424e-5
0.324, 2.463e-5
0.325, 2.507e-5
0.326, 2.552e-5
0.327, 2.597e-5
0.328, 2.639e-5
0.329, 2.683e-5
0.330, 2.734e-5
0.331, 2.777e-5
0.332, 2.829e-5
0.333, 2.888e-5
0.334, 2.926e-5
0.335, 2.976e-5
0.336, 3.019e-5
0.337, 3.083e-5
0.338, 3.129e-5
0.339, 3.188e-5
0.340, 2.187e-5
0.339, 1.178e-5
0.338, 8.310e-6
0.337, 5.793e-6
0.336, 3.994e-6
0.335, 2.366e-6
0.334, 1.064e-6
0.333, -1.067e-7
0.332, -1.116e-6
0.331, -1.938e-6
0.330, -2.688e-6
0.329, -3.461e-6
0.328, -4.019e-6
0.327, -4.620e-6
0.326, -5.221e-6
0.325, -5.620e-6
0.324, -6.110e-6
0.323, -6.378e-6
0.322, -6.848e-6
0.321, -7.248e-6
0.320, -7.407e-6
0.319, -7.742e-6
0.318, -8.083e-6
0.317, -8.278e-6
0.316, -8.553e-6
0.315, -8.718e-6
0.314, -8.963e-6
0.313, -9.194e-6
0.312, -9.225e-6
0.311, -9.465e-6
0.310, -9.610e-6
0.309, -9.751e-6
0.308, -9.934e-6
0.307, -1.026e-5
0.306, -1.012e-5
0.305, -1.023e-5
0.304, -1.027e-5
0.303, -1.036e-5
0.302, -1.044e-5
0.301, -1.050e-5
0.300, -1.063e-5
0.299, -1.059e-5
0.298, -1.064e-5
0.297, -1.072e-5
0.296, -1.069e-5
0.295, -1.070e-5
0.294, -1.080e-5
0.293, -1.083e-5
0.292, -1.088e-5
0.291, -1.088e-5
0.290, -1.086e-5
0.289, -1.095e-5
0.288, -1.092e-5
0.287, -1.098e-5
0.286, -1.093e-5
0.285, -1.092e-5
0.284, -1.100e-5
0.283, -1.091e-5
0.282, -1.102e-5
0.281, -1.100e-5
0.280, -1.098e-5
0.279, -1.092e-5
0.278, -1.092e-5
0.277, -1.093e-5
0.276, -1.096e-5
0.275, -1.092e-5
0.274, -1.087e-5
0.273, -1.090e-5
0.272, -1.082e-5
0.271, -1.086e-5
0.270, -1.085e-5
0.269, -1.081e-5
0.268, -1.077e-5
0.267, -1.084e-5
0.266, -1.075e-5
0.265, -1.078e-5
0.264, -1.076e-5
0.263, -1.073e-5
0.262, -1.074e-5
0.261, -1.068e-5
0.260, -1.074e-5
0.259, -1.064e-5
0.258, -1.068e-5
0.257, -1.065e-5
0.256, -1.067e-5
0.255, -1.055e-5
0.254, -1.064e-5
0.253, -1.058e-5
0.252, -1.055e-5
0.251, -1.058e-5
0.250, -1.048e-5
0.249, -1.056e-5
0.248, -1.050e-5
0.247, -1.046e-5
0.246, -1.049e-5
0.245, -1.042e-5
0.244, -1.043e-5
0.243, -1.036e-5
0.242, -1.042e-5
0.241, -1.042e-5
0.240, -4.005e-6
0.241, 4.227e-7
0.242, 1.487e-6
0.243, 2.242e-6
0.244, 2.911e-6
0.245, 3.374e-6
0.246, 3.772e-6
0.247, 4.254e-6
0.248, 4.517e-6
0.249, 4.886e-6
0.250, 5.160e-6
0.251, 5.457e-6
0.252, 5.714e-6
0.253, 5.964e-6
0.254, 6.177e-6
0.255, 6.491e-6
0.256, 6.670e-6
0.257, 6.927e-6
0.258, 7.097e-6
0.259, 7.349e-6
0.260, 7.516e-6
0.261, 7.748e-6
0.262, 7.883e-6
0.263, 8.170e-6
0.264, 8.241e-6
0.265, 8.561e-6
0.266, 8.717e-6
0.267, 8.901e-6
0.268, 9.078e-6
0.269, 9.223e-6
0.270, 9.461e-6
0.271, 9.668e-6
0.272, 9.823e-6
0.273, 1.006e-5
0.274, 1.024e-5
0.275, 1.047e-5
0.276, 1.059e-5
0.277, 1.086e-5
0.278, 1.100e-5
0.279, 1.129e-5
0.280, 1.142e-5
0.281, 1.169e-5
0.282, 1.190e-5
0.283, 1.209e-5
0.284, 1.227e-5
0.285, 1.251e-5
0.286, 1.273e-5
0.287, 1.299e-5
0.288, 1.315e-5
0.289, 1.344e-5
0.290, 1.365e-5
0.291, 1.385e-5
0.292, 1.409e-5
0.293, 1.441e-5
0.294, 1.452e-5
0.295, 1.488e-5
0.296, 1.507e-5
0.297, 1.539e-5
0.298, 1.562e-5
0.299, 1.589e-5
0.300, 1.620e-5
0.301, 1.644e-5
0.302, 1.673e-5
0.303, 1.704e-5
0.304, 1.727e-5
0.305, 1.759e-5
0.306, 1.792e-5
0.307, 1.857e-5
0.308, 1.868e-5
0.309, 1.893e-5
0.310, 1.914e-5
0.311, 1.958e-5
0.312, 1.982e-5
0.313, 2.022e-5
0.314, 2.056e-5
0.315, 2.097e-5
0.316, 2.130e-5
0.317, 2.161e-5
0.318, 2.197e-5
0.319, 2.245e-5
0.320, 2.267e-5
0.321, 2.312e-5
0.322, 2.354e-5
0.323, 2.396e-5
0.324, 2.439e-5
0.325, 2.483e-5
0.326, 2.519e-5
0.327, 2.573e-5
0.328, 2.609e-5
0.329, 2.656e-5
0.330, 2.700e-5
0.331, 2.747e-5
0.332, 2.798e-5
0.333, 2.851e-5
0.334, 2.894e-5
0.335, 2.949e-5
0.336, 2.995e-5
0.337, 3.049e-5
0.338, 3.098e-5
0.339, 3.156e-5
0.340, 2.152e-5
0.339, 1.158e-5
0.338, 8.023e-6
0.337, 5.532e-6
0.336, 3.681e-6
0.335, 2.151e-6
0.334, 8.167e-7
0.333, -4.269e-7
0.332, -1.298e-6
0.331, -2.190e-6
0.330, -2.949e-6
0.329, -3.688e-6
0.328, -4.272e-6
0.327, -4.883e-6
0.326, -5.398e-6
0.325, -5.816e-6
0.324, -6.286e-6
0.323, -6.620e-6
0.322, -7.072e-6
0.321, -7.414e-6
0.320, -7.587e-6
0.319, -7.948e-6
0.318, -8.290e-6
0.317, -8.494e-6
0.316, -8.746e-6
0.315, -8.916e-6
0.314, -9.144e-6
0.313, -9.343e-6
0.312, -9.471e-6
0.311, -9.636e-6
0.310, -9.762e-6
0.309, -9.879e-6
0.308, -1.021e-5
0.307, -1.040e-5
0.306, -1.031e-5
0.305, -1.034e-5
0.304, -1.040e-5
0.303, -1.051e-5
0.302, -1.060e-5
0.301, -1.067e-5
0.300, -1.072e-5
0.299, -1.077e-5
0.298, -1.075e-5
0.297, -1.092e-5
0.296, -1.085e-5
0.295, -1.083e-5
0.294, -1.094e-5
0.293, -1.097e-5
0.292, -1.100e-5
0.291, -1.098e-5
0.290, -1.107e-5
0.289, -1.103e-5
0.288, -1.108e-5
0.287, -1.106e-5
0.286, -1.107e-5
0.285, -1.106e-5
0.284, -1.109e-5
0.283, -1.110e-5
0.282, -1.115e-5
0.281, -1.106e-5
0.280, -1.107e-5
0.279, -1.106e-5
0.278, -1.107e-5
0.277, -1.107e-5
0.276, -1.108e-5
0.275, -1.104e-5
0.274, -1.101e-5
0.273, -1.102e-5
0.272, -1.100e-5
0.271, -1.100e-5
0.270, -1.097e-5
0.269, -1.088e-5
0.268, -1.092e-5
0.267, -1.091e-5
0.266, -1.090e-5
0.265, -1.091e-5
0.264, -1.084e-5
0.263, -1.086e-5
0.262, -1.085e-5
0.261, -1.081e-5
0.260, -1.082e-5
0.259, -1.078e-5
0.258, -1.073e-5
0.257, -1.075e-5
0.256, -1.079e-5
0.255, -1.069e-5
0.254, -1.074e-5
0.253, -1.068e-5
0.252, -1.064e-5
0.251, -1.066e-5
0.250, -1.062e-5
0.249, -1.067e-5
0.248, -1.060e-5
0.247, -1.054e-5
0.246, -1.060e-5
0.245, -1.055e-5
0.244, -1.054e-5
0.243, -1.048e-5
0.242, -1.051e-5
0.241, -1.053e-5
0.240, -4.098e-6
0.241, 3.308e-7
0.242, 1.407e-6
0.243, 2.185e-6
0.244, 2.774e-6
0.245, 3.294e-6
0.246, 3.660e-6
0.247, 4.179e-6
0.248, 4.418e-6
0.249, 4.803e-6
0.250, 5.097e-6
0.251, 5.382e-6
0.252, 5.615e-6
0.253, 5.859e-6
0.254, 6.125e-6
0.255, 6.365e-6
0.256, 6.586e-6
0.257, 6.829e-6
0.258, 6.997e-6
0.259, 7.253e-6
0.260, 7.411e-6
0.261, 7.651e-6
0.262, 7.804e-6
0.263, 8.056e-6
0.264, 8.191e-6
0.265, 8.435e-6
0.266, 8.557e-6
0.267, 8.786e-6
0.268, 9.007e-6
0.269, 9.132e-6
0.270, 9.359e-6
0.271, 9.584e-6
0.272, 9.687e-6
0.273, 9.958e-6
0.274, 1.016e-5
0.275, 1.033e-5
0.276, 1.054e-5
0.277, 1.076e-5
0.278, 1.091e-5
0.279, 1.116e-5
0.280, 1.128e-5
0.281, 1.160e-5
0.282, 1.177e-5
0.283, 1.198e-5
0.284, 1.218e-5
0.285, 1.239e-5
0.286, 1.255e-5
0.287, 1.288e-5
0.288, 1.301e-5
0.289, 1.331e-5
0.290, 1.349e-5
0.291, 1.379e-5
0.292, 1.399e-5
0.293, 1.422e-5
0.294, 1.439e-5
0.295, 1.475e-5
0.296, 1.494e-5
0.297, 1.523e-5
0.298, 1.550e-5
0.299, 1.572e-5
0.300, 1.609e-5
0.301, 1.631e-5
0.302, 1.660e-5
0.303, 1.691e-5
0.304, 1.711e-5
0.305, 1.750e-5
0.306, 1.773e-5
0.307, 1.843e-5
0.308, 1.847e-5
0.309, 1.877e-5
0.310, 1.903e-5
0.311, 1.949e-5
0.312, 1.966e-5
0.313, 2.012e-5
0.314, 2.036e-5
0.315, 2.075e-5
0.316, 2.110e-5
0.317, 2.149e-5
0.318, 2.178e-5
0.319, 2.226e-5
0.320, 2.251e-5
0.321, 2.296e-5
0.322, 2.339e-5
0.323, 2.375e-5
0.324, 2.419e-5
0.325, 2.458e-5
0.326, 2.503e-5
0.327, 2.552e-5
0.328, 2.590e-5
0.329, 2.640e-5
0.330, 2.682e-5
0.331, 2.730e-5
0.332, 2.778e-5
0.333, 2.835e-5
0.334, 2.873e-5
0.335, 2.930e-5
0.336, 2.970e-5
0.337, 3.028e-5
0.338, 3.078e-5
0.339, 3.133e-5
0.340, 2.130e-5
0.339, 1.137e-5
0.338, 7.805e-6
0.337, 5.370e-6
0.336, 3.476e-6
0.335, 1.985e-6
0.334, 5.816e-7
0.333, -5.192e-7
0.332, -1.547e-6
0.331, -2.329e-6
0.330, -3.129e-6
0.329, -3.853e-6
0.328, -4.428e-6
0.327, -4.986e-6
0.326, -5.528e-6
0.325, -5.990e-6
0.324, -6.423e-6
0.323, -6.828e-6
0.322, -7.192e-6
0.321, -7.592e-6
0.320, -7.688e-6
0.319, -8.156e-6
0.318, -8.409e-6
0.317, -8.584e-6
0.316, -8.862e-6
0.315, -9.078e-6
0.314, -9.265e-6
0.313, -9.461e-6
0.312, -9.587e-6
0.311, -9.728e-6
0.310, -9.897e-6
0.309, -1.003e-5
0.308, -1.028e-5
0.307, -1.053e-5
0.306, -1.042e-5
0.305, -1.050e-5
0.304, -1.052e-5
0.303, -1.060e-5
0.302, -1.072e-5
0.301, -1.074e-5
0.300, -1.086e-5
0.299, -1.091e-5
0.298, -1.086e-5
0.297, -1.099e-5
0.296, -1.099e-5
0.295, -1.095e-5
0.294, -1.102e-5
0.293, -1.103e-5
0.292, -1.113e-5
0.291, -1.107e-5
0.290, -1.109e-5
0.289, -1.115e-5
0.288, -1.117e-5
0.287, -1.117e-5
0.286, -1.115e-5
0.285, -1.116e-5
0.284, -1.117e-5
0.283, -1.118e-5
0.282, -1.123e-5
0.281, -1.125e-5
0.280, -1.115e-5
0.279, -1.112e-5
0.278, -1.114e-5
0.277, -1.116e-5
0.276, -1.115e-5
0.275, -1.110e-5
0.274, -1.109e-5
0.273, -1.111e-5
0.272, -1.107e-5
0.271, -1.102e-5
0.270, -1.111e-5
0.269, -1.094e-5
0.268, -1.100e-5
0.267, -1.097e-5
0.266, -1.101e-5
0.265, -1.100e-5
0.264, -1.093e-5
0.263, -1.091e-5
0.262, -1.099e-5
0.261, -1.087e-5
0.260, -1.086e-5
0.259, -1.086e-5
0.258, -1.082e-5
0.257, -1.085e-5
0.256, -1.083e-5
0.255, -1.082e-5
0.254, -1.081e-5
0.253, -1.072e-5
0.252, -1.077e-5
0.251, -1.073e-5
0.250, -1.073e-5
0.249, -1.069e-5
0.248, -1.064e-5
0.247, -1.068e-5
0.246, -1.067e-5
0.245, -1.061e-5
0.244, -1.061e-5
0.243, -1.057e-5
0.242, -1.062e-5
0.241, -1.059e-5
0.240, -4.199e-6
0.241, 2.415e-7
0.242, 1.346e-6
0.243, 2.074e-6
0.244, 2.766e-6
0.245, 3.256e-6
0.246, 3.622e-6
0.247, 4.106e-6
0.248, 4.382e-6
0.249, 4.705e-6
0.250, 5.010e-6
0.251, 5.306e-6
0.252, 5.566e-6
0.253, 5.781e-6
0.254, 6.037e-6
0.255, 6.340e-6
0.256, 6.510e-6
0.257, 6.798e-6
0.258, 6.920e-6
0.259, 7.142e-6
0.260, 7.363e-6
0.261, 7.566e-6
0.262, 7.737e-6
0.263, 8.009e-6
0.264, 8.140e-6
0.265, 8.358e-6
0.266, 8.488e-6
0.267, 8.765e-6
0.268, 8.919e-6
0.269, 9.050e-6
0.270, 9.267e-6
0.271, 9.516e-6
0.272, 9.637e-6
0.273, 9.886e-6
0.274, 1.001e-5
0.275, 1.031e-5
0.276, 1.045e-5
0.277, 1.063e-5
0.278, 1.081e-5
0.279, 1.106e-5
0.280, 1.125e-5
0.281, 1.152e-5
0.282, 1.168e-5
0.283, 1.188e-5
0.284, 1.206e-5
0.285, 1.233e-5
0.286, 1.250e-5
0.287, 1.275e-5
0.288, 1.298e-5
0.289, 1.323e-5
0.290, 1.340e-5
0.291, 1.362e-5
0.292, 1.391e-5
0.293, 1.417e-5
0.294, 1.429e-5
0.295, 1.464e-5
0.296, 1.485e-5
0.297, 1.511e-5
0.298, 1.536e-5
0.299, 1.566e-5
0.300, 1.596e-5
0.301, 1.620e-5
0.302, 1.643e-5
0.303, 1.681e-5
0.304, 1.703e-5
0.305, 1.737e-5
0.306, 1.761e-5
0.307, 1.830e-5
0.308, 1.837e-5
0.309, 1.864e-5
0.310, 1.891e-5
0.311, 1.931e-5
0.312, 1.958e-5
0.313, 1.994e-5
0.314, 2.031e-5
0.315, 2.062e-5
0.316, 2.097e-5
0.317, 2.136e-5
0.318, 2.167e-5
0.319, 2.212e-5
0.320, 2.233e-5
0.321, 2.286e-5
0.322, 2.325e-5
0.323, 2.362e-5
0.324, 2.406e-5
0.325, 2.446e-5
0.326, 2.491e-5
0.327, 2.537e-5
0.328, 2.575e-5
0.329, 2.623e-5
0.330, 2.662e-5
0.331, 2.714e-5
0.332, 2.762e-5
0.333, 2.819e-5
0.334, 2.860e-5
0.335, 2.912e-5
0.336, 2.958e-5
0.337, 3.012e-5
0.338, 3.062e-5
0.339, 3.120e-5
0.340, 2.115e-5
0.339, 1.123e-5
0.338, 7.670e-6
0.337, 5.165e-6
0.336, 3.366e-6
0.335, 1.824e-6
0.334, 4.186e-7
0.333, -7.062e-7
0.332, -1.678e-6
0.331, -2.457e-6
0.330, -3.248e-6
0.329, -3.931e-6
0.328, -4.476e-6
0.327, -5.130e-6
0.326, -5.695e-6
0.325, -6.094e-6
0.324, -6.541e-6
0.323, -6.944e-6
0.322, -7.302e-6
0.321, -7.654e-6
0.320, -7.838e-6
0.319, -8.193e-6
0.318, -8.525e-6
0.317, -8.661e-6
0.316, -9.000e-6
0.315, -9.170e-6
0.314, -9.315e-6
0.313, -9.607e-6
0.312, -9.675e-6
0.311, -9.785e-6
0.310, -1.005e-5
0.309, -1.003e-5
0.308, -1.039e-5
0.307, -1.060e-5
0.306, -1.049e-5
0.305, -1.058e-5
0.304, -1.061e-5
0.303, -1.072e-5
0.302, -1.081e-5
0.301, -1.081e-5
0.300, -1.090e-5
0.299, -1.094e-5
0.298, -1.099e-5
0.297, -1.106e-5
0.296, -1.100e-5
0.295, -1.102e-5
0.294, -1.113e-5
0.293, -1.113e-5
0.292, -1.123e-5
0.291, -1.110e-5
0.290, -1.121e-5
0.289, -1.125e-5
0.288, -1.122e-5
0.287, -1.120e-5
0.286, -1.125e-5
0.285, -1.119e-5
0.284, -1.130e-5
0.283, -1.119e-5
0.282, -1.128e-5
0.281, -1.129e-5
0.280, -1.121e-5
0.279, -1.118e-5
0.278, -1.121e-5
0.277, -1.118e-5
0.276, -1.120e-5
0.275, -1.122e-5
0.274, -1.116e-5
0.273, -1.115e-5
0.272, -1.112e-5
0.271, -1.108e-5
0.270, -1.114e-5
0.269, -1.101e-5
0.268, -1.108e-5
0.267, -1.104e-5
0.266, -1.102e-5
0.265, -1.105e-5
0.264, -1.099e-5
0.263, -1.098e-5
0.262, -1.098e-5
0.261, -1.094e-5
0.260, -1.093e-5
0.259, -1.090e-5
0.258, -1.089e-5
0.257, -1.092e-5
0.256, -1.085e-5
0.255, -1.089e-5
0.254, -1.085e-5
0.253, -1.083e-5
0.252, -1.081e-5
0.251, -1.077e-5
0.250, -1.074e-5
0.249, -1.078e-5
0.248, -1.072e-5
0.247, -1.070e-5
0.246, -1.075e-5
0.245, -1.065e-5
0.244, -1.069e-5
0.243, -1.064e-5
0.242, -1.065e-5
0.241, -1.062e-5
0.240, -4.279e-6
0.241, 2.116e-7
0.242, 1.312e-6
0.243, 2.046e-6
0.244, 2.664e-6
0.245, 3.180e-6
0.246, 3.554e-6
0.247, 4.075e-6
0.248, 4.312e-6
0.249, 4.699e-6
0.250, 4.972e-6
0.251, 5.253e-6
0.252, 5.489e-6
0.253, 5.799e-6
0.254, 5.949e-6
0.255, 6.312e-6
0.256, 6.461e-6
0.257, 6.701e-6
0.258, 6.887e-6
0.259, 7.094e-6
0.260, 7.333e-6
0.261, 7.529e-6
0.262, 7.712e-6
0.263, 7.922e-6
0.264, 8.112e-6
0.265, 8.268e-6
0.266, 8.478e-6
0.267, 8.644e-6
0.268, 8.880e-6
0.269, 8.990e-6
0.270, 9.190e-6
0.271, 9.487e-6
0.272, 9.559e-6
0.273, 9.824e-6
0.274, 1.002e-5
0.275, 1.020e-5
0.276, 1.042e-5
0.277, 1.057e-5
0.278, 1.075e-5
0.279, 1.104e-5
0.280, 1.115e-5
0.281, 1.147e-5
0.282, 1.162e-5
0.283, 1.182e-5
0.284, 1.204e-5
0.285, 1.225e-5
0.286, 1.241e-5
0.287, 1.272e-5
0.288, 1.287e-5
0.289, 1.313e-5
0.290, 1.336e-5
0.291, 1.359e-5
0.292, 1.381e-5
0.293, 1.407e-5
0.294, 1.422e-5
0.295, 1.459e-5
0.296, 1.470e-5
0.297, 1.505e-5
0.298, 1.532e-5
0.299, 1.557e-5
0.300, 1.588e-5
0.301, 1.610e-5
0.302, 1.638e-5
0.303, 1.674e-5
0.304, 1.694e-5
0.305, 1.725e-5
0.306, 1.754e-5
0.307, 1.820e-5
0.308, 1.831e-5
0.309, 1.855e-5
0.310, 1.875e-5
0.311, 1.928e-5
0.312, 1.945e-5
0.313, 1.989e-5
0.314, 2.013e-5
0.315, 2.053e-5
0.316, 2.090e-5
0.317, 2.125e-5
0.318, 2.158e-5
0.319, 2.205e-5
0.320, 2.219e-5
0.321, 2.274e-5
0.322, 2.309e-5
0.323, 2.354e-5
0.324, 2.398e-5
0.325, 2.434e-5
0.326, 2.475e-5
0.327, 2.524e-5
0.328, 2.561e-5
0.329, 2.614e-5
0.330, 2.654e-5
0.331, 2.702e-5
0.332, 2.750e-5
0.333, 2.810e-5
0.334, 2.845e-5
0.335, 2.908e-5
0.336, 2.935e-5
0.337, 3.003e-5
0.338, 3.046e-5
0.339, 3.106e-5
0.340, 2.099e-5
0.339, 1.106e-5
0.338, 7.545e-6
0.337, 5.052e-6
0.336, 3.270e-6
0.335, 1.696e-6
0.334, 4.063e-7
0.333, -8.075e-7
0.332, -1.705e-6
0.331, -2.549e-6
0.330, -3.308e-6
0.329, -4.046e-6
0.328, -4.643e-6
0.327, -5.229e-6
0.326, -5.759e-6
0.325, -6.190e-6
0.324, -6.640e-6
0.323, -6.969e-6
0.322, -7.379e-6
0.321, -7.769e-6
0.320, -7.951e-6
0.319, -8.240e-6
0.318, -8.604e-6
0.317, -8.771e-6
0.316, -9.049e-6
0.315, -9.204e-6
0.314, -9.416e-6
0.313, -9.649e-6
0.312, -9.743e-6
0.311, -9.888e-6
0.310, -1.010e-5
0.309, -1.011e-5
0.308, -1.042e-5
0.307, -1.065e-5
0.306, -1.057e-5
0.305, -1.061e-5
0.304, -1.070e-5
0.303, -1.073e-5
0.302, -1.086e-5
0.301, -1.088e-5
0.300, -1.095e-5
0.299, -1.100e-5
0.298, -1.102e-5
0.297, -1.111e-5
0.296, -1.109e-5
0.295, -1.110e-5
0.294, -1.119e-5
0.293, -1.112e-5
0.292, -1.123e-5
0.291, -1.122e-5
0.290, -1.120e-5
0.289, -1.129e-5
0.288, -1.129e-5
0.287, -1.123e-5
0.286, -1.129e-5
0.285, -1.126e-5
0.284, -1.129e-5
0.283, -1.128e-5
0.282, -1.135e-5
0.281, -1.131e-5
0.280, -1.124e-5
0.279, -1.124e-5
0.278, -1.128e-5
0.277, -1.121e-5
0.276, -1.128e-5
0.275, -1.122e-5
0.274, -1.122e-5
0.273, -1.121e-5
0.272, -1.115e-5
0.271, -1.116e-5
0.270, -1.116e-5
0.269, -1.105e-5
0.268, -1.114e-5
0.267, -1.109e-5
0.266, -1.104e-5
0.265, -1.111e-5
0.264, -1.103e-5
0.263, -1.100e-5
0.262, -1.107e-5
0.261, -1.097e-5
0.260, -1.097e-5
0.259, -1.098e-5
0.258, -1.096e-5
0.257, -1.096e-5
0.256, -1.095e-5
0.255, -1.087e-5
0.254, -1.091e-5
0.253, -1.083e-5
0.252, -1.087e-5
0.251, -1.080e-5
0.250, -1.081e-5
0.249, -1.082e-5
0.248, -1.076e-5
0.247, -1.074e-5
0.246, -1.082e-5
0.245, -1.067e-5
0.244, -1.073e-5
0.243, -1.064e-5
0.242, -1.072e-5
0.241, -1.069e-5
0.240, -4.290e-6
0.241, 1.816e-7
0.242, 1.246e-6
0.243, 1.992e-6
0.244, 2.686e-6
0.245, 3.155e-6
0.246, 3.529e-6
0.247, 4.024e-6
0.248, 4.296e-6
0.249, 4.651e-6
0.250, 4.905e-6
0.251, 5.234e-6
0.252, 5.510e-6
0.253, 5.703e-6
0.254, 5.982e-6
0.255, 6.226e-6
0.256, 6.401e-6
0.257, 6.700e-6
0.258, 6.866e-6
0.259, 7.065e-6
0.260, 7.276e-6
0.261, 7.485e-6
0.262, 7.642e-6
0.263, 7.904e-6
0.264, 8.031e-6
0.265, 8.241e-6
0.266, 8.431e-6
0.267, 8.691e-6
0.268, 8.791e-6
0.269, 8.938e-6
0.270, 9.132e-6
0.271, 9.426e-6
0.272, 9.536e-6
0.273, 9.802e-6
0.274, 9.941e-6
0.275, 1.017e-5
0.276, 1.032e-5
0.277, 1.054e-5
0.278, 1.074e-5
0.279, 1.099e-5
0.280, 1.110e-5
0.281, 1.143e-5
0.282, 1.158e-5
0.283, 1.173e-5
0.284, 1.198e-5
0.285, 1.218e-5
0.286, 1.236e-5
0.287, 1.263e-5
0.288, 1.284e-5
0.289, 1.309e-5
0.290, 1.329e-5
0.291, 1.353e-5
0.292, 1.377e-5
0.293, 1.399e-5
0.294, 1.415e-5
0.295, 1.455e-5
0.296, 1.467e-5
0.297, 1.504e-5
0.298, 1.523e-5
0.299, 1.547e-5
0.300, 1.579e-5
0.301, 1.610e-5
0.302, 1.628e-5
0.303, 1.668e-5
0.304, 1.682e-5
0.305, 1.724e-5
0.306, 1.746e-5
0.307, 1.816e-5
0.308, 1.818e-5
0.309, 1.846e-5
0.310, 1.878e-5
0.311, 1.912e-5
0.312, 1.941e-5
0.313, 1.975e-5
0.314, 2.010e-5
0.315, 2.046e-5
0.316, 2.082e-5
0.317, 2.112e-5
0.318, 2.147e-5
0.319, 2.202e-5
0.320, 2.213e-5
0.321, 2.267e-5
0.322, 2.298e-5
0.323, 2.345e-5
0.324, 2.384e-5
0.325, 2.422e-5
0.326, 2.467e-5
0.327, 2.521e-5
0.328, 2.551e-5
0.329, 2.602e-5
0.330, 2.647e-5
0.331, 2.696e-5
0.332, 2.742e-5
0.333, 2.789e-5
0.334, 2.829e-5
0.335, 2.897e-5
0.336, 2.928e-5
0.337, 2.991e-5
0.338, 3.041e-5
0.339, 3.097e-5
0.340, 2.091e-5
0.339, 1.101e-5
0.338, 7.470e-6
0.337, 5.009e-6
0.336, 3.183e-6
0.335, 1.584e-6
0.334, 3.332e-7
0.333, -8.734e-7
0.332, -1.770e-6
0.331, -2.659e-6
0.330, -3.400e-6
0.329, -4.102e-6
0.328, -4.689e-6
0.327, -5.260e-6
0.326, -5.838e-6
0.325, -6.233e-6
0.324, -6.696e-6
0.323, -7.060e-6
0.322, -7.433e-6
0.321, -7.818e-6
0.320, -7.941e-6
0.319, -8.334e-6
0.318, -8.630e-6
0.317, -8.811e-6
0.316, -9.101e-6
0.315, -9.262e-6
0.314, -9.489e-6
0.313, -9.687e-6
0.312, -9.760e-6
0.311, -9.971e-6
0.310, -1.007e-5
0.309, -1.019e-5
0.308, -1.051e-5
0.307, -1.069e-5
0.306, -1.066e-5
0.305, -1.063e-5
0.304, -1.071e-5
0.303, -1.079e-5
0.302, -1.094e-5
0.301, -1.093e-5
0.300, -1.101e-5
0.299, -1.103e-5
0.298, -1.105e-5
0.297, -1.119e-5
0.296, -1.110e-5
0.295, -1.114e-5
0.294, -1.121e-5
0.293, -1.119e-5
0.292, -1.126e-5
0.291, -1.123e-5
0.290, -1.132e-5
0.289, -1.131e-5
0.288, -1.134e-5
0.287, -1.130e-5
0.286, -1.135e-5
0.285, -1.129e-5
0.284, -1.134e-5
0.283, -1.128e-5
0.282, -1.136e-5
0.281, -1.137e-5
0.280, -1.128e-5
0.279, -1.127e-5
0.278, -1.129e-5
0.277, -1.128e-5
0.276, -1.129e-5
0.275, -1.123e-5
0.274, -1.126e-5
0.273, -1.126e-5
0.272, -1.119e-5
0.271, -1.117e-5
0.270, -1.123e-5
0.269, -1.108e-5
0.268, -1.112e-5
0.267, -1.112e-5
0.266, -1.111e-5
0.265, -1.109e-5
0.264, -1.108e-5
0.263, -1.105e-5
0.262, -1.106e-5
0.261, -1.104e-5
0.260, -1.103e-5
0.259, -1.097e-5
0.258, -1.098e-5
0.257, -1.098e-5
0.256, -1.098e-5
0.255, -1.093e-5
0.254, -1.094e-5
0.253, -1.085e-5
0.252, -1.092e-5
0.251, -1.084e-5
0.250, -1.083e-5
0.249, -1.087e-5
0.248, -1.082e-5
0.247, -1.078e-5
0.246, -1.081e-5
0.245, -1.076e-5
0.244, -1.078e-5
0.243, -1.067e-5
0.242, -1.074e-5
0.241, -1.070e-5
0.240, -4.338e-6
0.241, 1.397e-7
0.242, 1.270e-6
0.243, 1.989e-6
0.244, 2.620e-6
0.245, 3.154e-6
0.246, 3.473e-6
0.247, 4.007e-6
0.248, 4.252e-6
0.249, 4.666e-6
0.250, 4.902e-6
0.251, 5.195e-6
0.252, 5.449e-6
0.253, 5.699e-6
0.254, 5.902e-6
0.255, 6.229e-6
0.256, 6.380e-6
0.257, 6.610e-6
0.258, 6.901e-6
0.259, 6.996e-6
0.260, 7.251e-6
0.261, 7.430e-6
0.262, 7.632e-6
0.263, 7.885e-6
0.264, 7.993e-6
0.265, 8.247e-6
0.266, 8.368e-6
0.267, 8.582e-6
0.268, 8.798e-6
0.269, 8.897e-6
0.270, 9.101e-6
0.271, 9.364e-6
0.272, 9.511e-6
0.273, 9.725e-6
0.274, 9.931e-6
0.275, 1.017e-5
0.276, 1.029e-5
0.277, 1.047e-5
0.278, 1.070e-5
0.279, 1.097e-5
0.280, 1.102e-5
0.281, 1.139e-5
0.282, 1.153e-5
0.283, 1.174e-5
0.284, 1.195e-5
0.285, 1.213e-5
0.286, 1.235e-5
0.287, 1.259e-5
0.288, 1.274e-5
0.289, 1.308e-5
0.290, 1.324e-5
0.291, 1.348e-5
0.292, 1.371e-5
0.293, 1.395e-5
0.294, 1.407e-5
0.295, 1.446e-5
0.296, 1.465e-5
0.297, 1.495e-5
0.298, 1.519e-5
0.299, 1.549e-5
0.300, 1.570e-5
0.301, 1.601e-5
0.302, 1.627e-5
0.303, 1.662e-5
0.304, 1.675e-5
0.305, 1.715e-5
0.306, 1.748e-5
0.307, 1.807e-5
0.308, 1.814e-5
0.309, 1.843e-5
0.310, 1.865e-5
0.311, 1.911e-5
0.312, 1.931e-5
0.313, 1.970e-5
0.314, 2.002e-5
0.315, 2.040e-5
0.316, 2.078e-5
0.317, 2.112e-5
0.318, 2.139e-5
0.319, 2.189e-5
0.320, 2.214e-5
0.321, 2.253e-5
0.322, 2.296e-5
0.323, 2.339e-5
0.324, 2.379e-5
0.325, 2.423e-5
0.326, 2.464e-5
0.327, 2.510e-5
0.328, 2.547e-5
0.329, 2.596e-5
0.330, 2.635e-5
0.331, 2.686e-5
0.332, 2.732e-5
0.333, 2.790e-5
0.334, 2.826e-5
0.335, 2.882e-5
0.336, 2.923e-5
0.337, 2.983e-5
0.338, 3.026e-5
0.339, 3.088e-5
0.340, 2.086e-5
0.339, 1.095e-5
0.338, 7.381e-6
0.337, 4.866e-6
0.336, 3.105e-6
0.335, 1.590e-6
0.334, 3.086e-7
0.333, -9.430e-7
0.332, -1.826e-6
0.331, -2.744e-6
0.330, -3.467e-6
0.329, -4.167e-6
0.328, -4.732e-6
0.327, -5.316e-6
0.326, -5.837e-6
0.325, -6.320e-6
0.324, -6.785e-6
0.323, -7.097e-6
0.322, -7.480e-6
0.321, -7.829e-6
0.320, -8.033e-6
0.319, -8.346e-6
0.318, -8.696e-6
0.317, -8.883e-6
0.316, -9.139e-6
0.315, -9.277e-6
0.314, -9.542e-6
0.313, -9.700e-6
0.312, -9.862e-6
0.311, -9.953e-6
0.310, -1.013e-5
0.309, -1.030e-5
0.308, -1.049e-5
0.307, -1.075e-5
0.306, -1.065e-5
0.305, -1.072e-5
0.304, -1.078e-5
0.303, -1.082e-5
0.302, -1.090e-5
0.301, -1.095e-5
0.300, -1.108e-5
0.299, -1.104e-5
0.298, -1.112e-5
0.297, -1.116e-5
0.296, -1.118e-5
0.295, -1.115e-5
0.294, -1.123e-5
0.293, -1.125e-5
0.292, -1.128e-5
0.291, -1.128e-5
0.290, -1.133e-5
0.289, -1.132e-5
0.288, -1.134e-5
0.287, -1.133e-5
0.286, -1.138e-5
0.285, -1.134e-5
0.284, -1.134e-5
0.283, -1.135e-5
0.282, -1.140e-5
0.281, -1.138e-5
0.280, -1.128e-5
0.279, -1.132e-5
0.278, -1.133e-5
0.277, -1.125e-5
0.276, -1.133e-5
0.275, -1.129e-5
0.274, -1.126e-5
0.273, -1.128e-5
0.272, -1.123e-5
0.271, -1.122e-5
0.270, -1.124e-5
0.269, -1.109e-5
0.268, -1.120e-5
0.267, -1.116e-5
0.266, -1.113e-5
0.265, -1.113e-5
0.264, -1.113e-5
0.263, -1.109e-5
0.262, -1.109e-5
0.261, -1.105e-5
0.260, -1.101e-5
0.259, -1.104e-5
0.258, -1.103e-5
0.257, -1.102e-5
0.256, -1.097e-5
0.255, -1.095e-5
0.254, -1.098e-5
0.253, -1.089e-5
0.252, -1.096e-5
0.251, -1.085e-5
0.250, -1.089e-5
0.249, -1.090e-5
0.248, -1.080e-5
0.247, -1.080e-5
0.246, -1.082e-5
0.245, -1.074e-5
0.244, -1.078e-5
0.243, -1.073e-5
0.242, -1.076e-5
0.241, -1.076e-5
