Sept. 21, 2026   17:25:05
Cyclic Voltammetry
File: d:\desktop\sample\ss310 1 cm2\ss310_sheet cv 200 mv.bin
Data Source:  Experiment
Instrument Model:  CHI660D
Header: 
Note: 

Init E (V) = 0.24
High E (V) = 0.34
Low E (V) = 0.24
Init P/N = P
Scan Rate (V/s) = 0.2
Segment = 20
Sample Interval (V) = 0.001
Quiet Time (sec) = 2
Sensitivity (A/V) = 1e-5

Results:

Channel 1:
Segment 1:

Segment 2:

Segment 3:

Segment 4:

Segment 5:

Segment 6:

Segment 7:

Segment 8:

Segment 9:

Segment 10:

Segment 11:

Segment 12:

Segment 13:

Segment 14:

Segment 15:

Segment 16:

Segment 17:

Segment 18:

Segment 19:

Segment 20:

Potential/V, Current/A

0.240, 5.654e-6
0.241, 9.603e-6
0.242, 1.046e-5
0.243, 1.106e-5
0.244, 1.163e-5
0.245, 1.192e-5
0.246, 1.229e-5
0.247, 1.273e-5
0.248, 1.289e-5
0.249, 1.327e-5
0.250, 1.352e-5
0.251, 1.375e-5
0.252, 1.404e-5
0.253, 1.418e-5
0.254, 1.445e-5
0.255, 1.476e-5
0.256, 1.496e-5
0.257, 1.523e-5
0.258, 1.538e-5
0.259, 1.562e-5
0.260, 1.590e-5
0.261, 1.607e-5
0.262, 1.637e-5
0.263, 1.657e-5
0.264, 1.678e-5
0.265, 1.700e-5
0.266, 1.723e-5
0.267, 1.750e-5
0.268, 1.772e-5
0.269, 1.785e-5
0.270, 1.819e-5
0.271, 1.847e-5
0.272, 1.862e-5
0.273, 1.899e-5
0.274, 1.915e-5
0.275, 1.949e-5
0.276, 1.973e-5
0.277, 2.002e-5
0.278, 2.022e-5
0.279, 2.057e-5
0.280, 2.082e-5
0.281, 2.117e-5
0.282, 2.142e-5
0.283, 2.166e-5
0.284, 2.206e-5
0.285, 2.225e-5
0.286, 2.259e-5
0.287, 2.301e-5
0.288, 2.322e-5
0.289, 2.356e-5
0.290, 2.387e-5
0.291, 2.417e-5
0.292, 2.458e-5
0.293, 2.494e-5
0.294, 2.521e-5
0.295, 2.557e-5
0.296, 2.599e-5
0.297, 2.639e-5
0.298, 2.665e-5
0.299, 2.707e-5
0.300, 2.755e-5
0.301, 2.789e-5
0.302, 2.827e-5
0.303, 2.877e-5
0.304, 2.905e-5
0.305, 2.954e-5
0.306, 2.997e-5
0.307, 3.085e-5
0.308, 3.115e-5
0.309, 3.138e-5
0.310, 3.182e-5
0.311, 3.230e-5
0.312, 3.274e-5
0.313, 3.334e-5
0.314, 3.376e-5
0.315, 3.431e-5
0.316, 3.487e-5
0.317, 3.525e-5
0.318, 3.586e-5
0.319, 3.642e-5
0.320, 3.675e-5
0.321, 3.746e-5
0.322, 3.798e-5
0.323, 3.859e-5
0.324, 3.926e-5
0.325, 3.975e-5
0.326, 4.043e-5
0.327, 4.103e-5
0.328, 4.163e-5
0.329, 4.231e-5
0.330, 4.306e-5
0.331, 4.359e-5
0.332, 4.432e-5
0.333, 4.502e-5
0.334, 4.573e-5
0.335, 4.643e-5
0.336, 4.706e-5
0.337, 4.793e-5
0.338, 4.854e-5
0.339, 4.932e-5
0.340, 3.861e-5
0.339, 2.178e-5
0.338, 1.600e-5
0.337, 1.225e-5
0.336, 9.318e-6
0.335, 6.913e-6
0.334, 4.957e-6
0.333, 3.179e-6
0.332, 1.623e-6
0.331, 3.540e-7
0.330, -7.683e-7
0.329, -1.914e-6
0.328, -2.928e-6
0.327, -3.822e-6
0.326, -4.664e-6
0.325, -5.422e-6
0.324, -6.139e-6
0.323, -6.715e-6
0.322, -7.375e-6
0.321, -7.892e-6
0.320, -8.289e-6
0.319, -8.897e-6
0.318, -9.437e-6
0.317, -9.671e-6
0.316, -1.016e-5
0.315, -1.050e-5
0.314, -1.080e-5
0.313, -1.121e-5
0.312, -1.150e-5
0.311, -1.174e-5
0.310, -1.198e-5
0.309, -1.229e-5
0.308, -1.256e-5
0.307, -1.321e-5
0.306, -1.296e-5
0.305, -1.314e-5
0.304, -1.326e-5
0.303, -1.339e-5
0.302, -1.350e-5
0.301, -1.364e-5
0.300, -1.380e-5
0.299, -1.391e-5
0.298, -1.398e-5
0.297, -1.419e-5
0.296, -1.413e-5
0.295, -1.426e-5
0.294, -1.425e-5
0.293, -1.436e-5
0.292, -1.451e-5
0.291, -1.451e-5
0.290, -1.456e-5
0.289, -1.464e-5
0.288, -1.470e-5
0.287, -1.471e-5
0.286, -1.479e-5
0.285, -1.477e-5
0.284, -1.484e-5
0.283, -1.481e-5
0.282, -1.493e-5
0.281, -1.494e-5
0.280, -1.487e-5
0.279, -1.490e-5
0.278, -1.490e-5
0.277, -1.491e-5
0.276, -1.498e-5
0.275, -1.497e-5
0.274, -1.492e-5
0.273, -1.493e-5
0.272, -1.494e-5
0.271, -1.494e-5
0.270, -1.494e-5
0.269, -1.482e-5
0.268, -1.485e-5
0.267, -1.491e-5
0.266, -1.487e-5
0.265, -1.494e-5
0.264, -1.483e-5
0.263, -1.487e-5
0.262, -1.491e-5
0.261, -1.480e-5
0.260, -1.484e-5
0.259, -1.481e-5
0.258, -1.475e-5
0.257, -1.479e-5
0.256, -1.481e-5
0.255, -1.480e-5
0.254, -1.472e-5
0.253, -1.469e-5
0.252, -1.470e-5
0.251, -1.468e-5
0.250, -1.466e-5
0.249, -1.469e-5
0.248, -1.466e-5
0.247, -1.461e-5
0.246, -1.464e-5
0.245, -1.456e-5
0.244, -1.456e-5
0.243, -1.445e-5
0.242, -1.456e-5
0.241, -1.453e-5
0.240, -7.110e-6
0.241, 1.175e-6
0.242, 3.046e-6
0.243, 4.223e-6
0.244, 5.219e-6
0.245, 5.900e-6
0.246, 6.549e-6
0.247, 7.190e-6
0.248, 7.548e-6
0.249, 8.163e-6
0.250, 8.585e-6
0.251, 8.867e-6
0.252, 9.302e-6
0.253, 9.685e-6
0.254, 9.955e-6
0.255, 1.034e-5
0.256, 1.075e-5
0.257, 1.103e-5
0.258, 1.124e-5
0.259, 1.156e-5
0.260, 1.191e-5
0.261, 1.212e-5
0.262, 1.243e-5
0.263, 1.279e-5
0.264, 1.301e-5
0.265, 1.326e-5
0.266, 1.353e-5
0.267, 1.380e-5
0.268, 1.410e-5
0.269, 1.425e-5
0.270, 1.462e-5
0.271, 1.488e-5
0.272, 1.517e-5
0.273, 1.547e-5
0.274, 1.571e-5
0.275, 1.598e-5
0.276, 1.629e-5
0.277, 1.653e-5
0.278, 1.677e-5
0.279, 1.712e-5
0.280, 1.738e-5
0.281, 1.771e-5
0.282, 1.801e-5
0.283, 1.839e-5
0.284, 1.864e-5
0.285, 1.885e-5
0.286, 1.916e-5
0.287, 1.958e-5
0.288, 1.987e-5
0.289, 2.017e-5
0.290, 2.047e-5
0.291, 2.074e-5
0.292, 2.113e-5
0.293, 2.148e-5
0.294, 2.176e-5
0.295, 2.212e-5
0.296, 2.254e-5
0.297, 2.295e-5
0.298, 2.319e-5
0.299, 2.362e-5
0.300, 2.399e-5
0.301, 2.440e-5
0.302, 2.477e-5
0.303, 2.523e-5
0.304, 2.554e-5
0.305, 2.603e-5
0.306, 2.644e-5
0.307, 2.726e-5
0.308, 2.750e-5
0.309, 2.783e-5
0.310, 2.827e-5
0.311, 2.878e-5
0.312, 2.908e-5
0.313, 2.973e-5
0.314, 3.013e-5
0.315, 3.061e-5
0.316, 3.119e-5
0.317, 3.166e-5
0.318, 3.213e-5
0.319, 3.269e-5
0.320, 3.303e-5
0.321, 3.374e-5
0.322, 3.427e-5
0.323, 3.487e-5
0.324, 3.547e-5
0.325, 3.599e-5
0.326, 3.660e-5
0.327, 3.735e-5
0.328, 3.790e-5
0.329, 3.855e-5
0.330, 3.913e-5
0.331, 3.977e-5
0.332, 4.041e-5
0.333, 4.133e-5
0.334, 4.183e-5
0.335, 4.260e-5
0.336, 4.329e-5
0.337, 4.409e-5
0.338, 4.476e-5
0.339, 4.550e-5
0.340, 3.481e-5
0.339, 1.809e-5
0.338, 1.225e-5
0.337, 8.755e-6
0.336, 5.882e-6
0.335, 3.561e-6
0.334, 1.695e-6
0.333, -1.391e-8
0.332, -1.488e-6
0.331, -2.638e-6
0.330, -3.746e-6
0.329, -4.894e-6
0.328, -5.779e-6
0.327, -6.601e-6
0.326, -7.285e-6
0.325, -8.046e-6
0.324, -8.644e-6
0.323, -9.278e-6
0.322, -9.800e-6
0.321, -1.044e-5
0.320, -1.064e-5
0.319, -1.118e-5
0.318, -1.161e-5
0.317, -1.195e-5
0.316, -1.238e-5
0.315, -1.260e-5
0.314, -1.287e-5
0.313, -1.324e-5
0.312, -1.343e-5
0.311, -1.371e-5
0.310, -1.391e-5
0.309, -1.410e-5
0.308, -1.449e-5
0.307, -1.497e-5
0.306, -1.472e-5
0.305, -1.489e-5
0.304, -1.491e-5
0.303, -1.510e-5
0.302, -1.521e-5
0.301, -1.532e-5
0.300, -1.540e-5
0.299, -1.545e-5
0.298, -1.551e-5
0.297, -1.567e-5
0.296, -1.569e-5
0.295, -1.571e-5
0.294, -1.568e-5
0.293, -1.580e-5
0.292, -1.589e-5
0.291, -1.589e-5
0.290, -1.591e-5
0.289, -1.604e-5
0.288, -1.598e-5
0.287, -1.604e-5
0.286, -1.602e-5
0.285, -1.609e-5
0.284, -1.614e-5
0.283, -1.608e-5
0.282, -1.615e-5
0.281, -1.618e-5
0.280, -1.606e-5
0.279, -1.609e-5
0.278, -1.609e-5
0.277, -1.605e-5
0.276, -1.606e-5
0.275, -1.611e-5
0.274, -1.604e-5
0.273, -1.602e-5
0.272, -1.605e-5
0.271, -1.602e-5
0.270, -1.596e-5
0.269, -1.588e-5
0.268, -1.601e-5
0.267, -1.591e-5
0.266, -1.590e-5
0.265, -1.592e-5
0.264, -1.588e-5
0.263, -1.588e-5
0.262, -1.591e-5
0.261, -1.578e-5
0.260, -1.581e-5
0.259, -1.576e-5
0.258, -1.578e-5
0.257, -1.576e-5
0.256, -1.575e-5
0.255, -1.570e-5
0.254, -1.566e-5
0.253, -1.561e-5
0.252, -1.571e-5
0.251, -1.557e-5
0.250, -1.560e-5
0.249, -1.557e-5
0.248, -1.558e-5
0.247, -1.551e-5
0.246, -1.553e-5
0.245, -1.548e-5
0.244, -1.543e-5
0.243, -1.533e-5
0.242, -1.542e-5
0.241, -1.542e-5
0.240, -7.944e-6
0.241, 4.559e-7
0.242, 2.328e-6
0.243, 3.501e-6
0.244, 4.479e-6
0.245, 5.183e-6
0.246, 5.889e-6
0.247, 6.454e-6
0.248, 6.908e-6
0.249, 7.448e-6
0.250, 7.861e-6
0.251, 8.245e-6
0.252, 8.662e-6
0.253, 8.982e-6
0.254, 9.336e-6
0.255, 9.684e-6
0.256, 1.005e-5
0.257, 1.036e-5
0.258, 1.063e-5
0.259, 1.090e-5
0.260, 1.126e-5
0.261, 1.150e-5
0.262, 1.173e-5
0.263, 1.212e-5
0.264, 1.230e-5
0.265, 1.258e-5
0.266, 1.288e-5
0.267, 1.320e-5
0.268, 1.342e-5
0.269, 1.352e-5
0.270, 1.392e-5
0.271, 1.426e-5
0.272, 1.441e-5
0.273, 1.478e-5
0.274, 1.505e-5
0.275, 1.529e-5
0.276, 1.564e-5
0.277, 1.586e-5
0.278, 1.609e-5
0.279, 1.642e-5
0.280, 1.662e-5
0.281, 1.704e-5
0.282, 1.730e-5
0.283, 1.757e-5
0.284, 1.791e-5
0.285, 1.811e-5
0.286, 1.843e-5
0.287, 1.880e-5
0.288, 1.905e-5
0.289, 1.941e-5
0.290, 1.970e-5
0.291, 1.998e-5
0.292, 2.035e-5
0.293, 2.071e-5
0.294, 2.102e-5
0.295, 2.135e-5
0.296, 2.169e-5
0.297, 2.215e-5
0.298, 2.235e-5
0.299, 2.279e-5
0.300, 2.326e-5
0.301, 2.358e-5
0.302, 2.387e-5
0.303, 2.440e-5
0.304, 2.466e-5
0.305, 2.512e-5
0.306, 2.556e-5
0.307, 2.642e-5
0.308, 2.660e-5
0.309, 2.690e-5
0.310, 2.737e-5
0.311, 2.775e-5
0.312, 2.817e-5
0.313, 2.876e-5
0.314, 2.913e-5
0.315, 2.960e-5
0.316, 3.022e-5
0.317, 3.062e-5
0.318, 3.112e-5
0.319, 3.165e-5
0.320, 3.210e-5
0.321, 3.272e-5
0.322, 3.322e-5
0.323, 3.379e-5
0.324, 3.451e-5
0.325, 3.497e-5
0.326, 3.556e-5
0.327, 3.623e-5
0.328, 3.668e-5
0.329, 3.737e-5
0.330, 3.800e-5
0.331, 3.861e-5
0.332, 3.936e-5
0.333, 4.018e-5
0.334, 4.073e-5
0.335, 4.140e-5
0.336, 4.209e-5
0.337, 4.288e-5
0.338, 4.352e-5
0.339, 4.427e-5
0.340, 3.375e-5
0.339, 1.688e-5
0.338, 1.118e-5
0.337, 7.403e-6
0.336, 4.885e-6
0.335, 2.454e-6
0.334, 5.947e-7
0.333, -1.096e-6
0.332, -2.594e-6
0.331, -3.648e-6
0.330, -4.757e-6
0.329, -5.819e-6
0.328, -6.729e-6
0.327, -7.514e-6
0.326, -8.231e-6
0.325, -9.030e-6
0.324, -9.643e-6
0.323, -1.013e-5
0.322, -1.069e-5
0.321, -1.122e-5
0.320, -1.147e-5
0.319, -1.206e-5
0.318, -1.244e-5
0.317, -1.273e-5
0.316, -1.314e-5
0.315, -1.338e-5
0.314, -1.367e-5
0.313, -1.396e-5
0.312, -1.418e-5
0.311, -1.445e-5
0.310, -1.454e-5
0.309, -1.478e-5
0.308, -1.511e-5
0.307, -1.564e-5
0.306, -1.545e-5
0.305, -1.561e-5
0.304, -1.552e-5
0.303, -1.572e-5
0.302, -1.586e-5
0.301, -1.589e-5
0.300, -1.604e-5
0.299, -1.609e-5
0.298, -1.611e-5
0.297, -1.625e-5
0.296, -1.623e-5
0.295, -1.637e-5
0.294, -1.625e-5
0.293, -1.636e-5
0.292, -1.647e-5
0.291, -1.646e-5
0.290, -1.645e-5
0.289, -1.658e-5
0.288, -1.652e-5
0.287, -1.658e-5
0.286, -1.652e-5
0.285, -1.660e-5
0.284, -1.663e-5
0.283, -1.654e-5
0.282, -1.667e-5
0.281, -1.665e-5
0.280, -1.655e-5
0.279, -1.663e-5
0.278, -1.656e-5
0.277, -1.654e-5
0.276, -1.663e-5
0.275, -1.656e-5
0.274, -1.647e-5
0.273, -1.654e-5
0.272, -1.647e-5
0.271, -1.647e-5
0.270, -1.645e-5
0.269, -1.638e-5
0.268, -1.641e-5
0.267, -1.632e-5
0.266, -1.633e-5
0.265, -1.643e-5
0.264, -1.629e-5
0.263, -1.628e-5
0.262, -1.633e-5
0.261, -1.629e-5
0.260, -1.627e-5
0.259, -1.618e-5
0.258, -1.613e-5
0.257, -1.619e-5
0.256, -1.618e-5
0.255, -1.615e-5
0.254, -1.606e-5
0.253, -1.602e-5
0.252, -1.609e-5
0.251, -1.603e-5
0.250, -1.600e-5
0.249, -1.600e-5
0.248, -1.596e-5
0.247, -1.591e-5
0.246, -1.587e-5
0.245, -1.590e-5
0.244, -1.589e-5
0.243, -1.574e-5
0.242, -1.582e-5
0.241, -1.586e-5
0.240, -8.329e-6
0.241, 9.471e-8
0.242, 2.009e-6
0.243, 3.131e-6
0.244, 4.215e-6
0.245, 4.858e-6
0.246, 5.602e-6
0.247, 6.135e-6
0.248, 6.595e-6
0.249, 7.111e-6
0.250, 7.538e-6
0.251, 7.952e-6
0.252, 8.307e-6
0.253, 8.649e-6
0.254, 9.013e-6
0.255, 9.363e-6
0.256, 9.721e-6
0.257, 1.009e-5
0.258, 1.031e-5
0.259, 1.059e-5
0.260, 1.092e-5
0.261, 1.114e-5
0.262, 1.146e-5
0.263, 1.181e-5
0.264, 1.201e-5
0.265, 1.226e-5
0.266, 1.258e-5
0.267, 1.275e-5
0.268, 1.310e-5
0.269, 1.324e-5
0.270, 1.359e-5
0.271, 1.392e-5
0.272, 1.407e-5
0.273, 1.445e-5
0.274, 1.468e-5
0.275, 1.490e-5
0.276, 1.529e-5
0.277, 1.549e-5
0.278, 1.576e-5
0.279, 1.609e-5
0.280, 1.630e-5
0.281, 1.670e-5
0.282, 1.690e-5
0.283, 1.721e-5
0.284, 1.752e-5
0.285, 1.774e-5
0.286, 1.812e-5
0.287, 1.844e-5
0.288, 1.861e-5
0.289, 1.905e-5
0.290, 1.934e-5
0.291, 1.967e-5
0.292, 1.994e-5
0.293, 2.026e-5
0.294, 2.050e-5
0.295, 2.094e-5
0.296, 2.132e-5
0.297, 2.163e-5
0.298, 2.192e-5
0.299, 2.237e-5
0.300, 2.279e-5
0.301, 2.313e-5
0.302, 2.347e-5
0.303, 2.393e-5
0.304, 2.423e-5
0.305, 2.467e-5
0.306, 2.513e-5
0.307, 2.590e-5
0.308, 2.619e-5
0.309, 2.643e-5
0.310, 2.681e-5
0.311, 2.735e-5
0.312, 2.771e-5
0.313, 2.823e-5
0.314, 2.866e-5
0.315, 2.917e-5
0.316, 2.971e-5
0.317, 3.013e-5
0.318, 3.057e-5
0.319, 3.121e-5
0.320, 3.153e-5
0.321, 3.218e-5
0.322, 3.264e-5
0.323, 3.323e-5
0.324, 3.386e-5
0.325, 3.437e-5
0.326, 3.493e-5
0.327, 3.565e-5
0.328, 3.604e-5
0.329, 3.690e-5
0.330, 3.746e-5
0.331, 3.815e-5
0.332, 3.877e-5
0.333, 3.949e-5
0.334, 4.012e-5
0.335, 4.078e-5
0.336, 4.146e-5
0.337, 4.222e-5
0.338, 4.279e-5
0.339, 4.361e-5
0.340, 3.300e-5
0.339, 1.629e-5
0.338, 1.057e-5
0.337, 6.905e-6
0.336, 4.168e-6
0.335, 1.883e-6
0.334, 1.461e-7
0.333, -1.675e-6
0.332, -3.084e-6
0.331, -4.257e-6
0.330, -5.287e-6
0.329, -6.452e-6
0.328, -7.224e-6
0.327, -8.004e-6
0.326, -8.777e-6
0.325, -9.482e-6
0.324, -1.013e-5
0.323, -1.052e-5
0.322, -1.115e-5
0.321, -1.169e-5
0.320, -1.191e-5
0.319, -1.258e-5
0.318, -1.285e-5
0.317, -1.321e-5
0.316, -1.354e-5
0.315, -1.382e-5
0.314, -1.410e-5
0.313, -1.441e-5
0.312, -1.458e-5
0.311, -1.475e-5
0.310, -1.501e-5
0.309, -1.519e-5
0.308, -1.544e-5
0.307, -1.605e-5
0.306, -1.581e-5
0.305, -1.594e-5
0.304, -1.590e-5
0.303, -1.606e-5
0.302, -1.618e-5
0.301, -1.623e-5
0.300, -1.641e-5
0.299, -1.639e-5
0.298, -1.648e-5
0.297, -1.657e-5
0.296, -1.658e-5
0.295, -1.670e-5
0.294, -1.663e-5
0.293, -1.672e-5
0.292, -1.678e-5
0.291, -1.675e-5
0.290, -1.681e-5
0.289, -1.688e-5
0.288, -1.686e-5
0.287, -1.684e-5
0.286, -1.685e-5
0.285, -1.687e-5
0.284, -1.690e-5
0.283, -1.685e-5
0.282, -1.697e-5
0.281, -1.696e-5
0.280, -1.684e-5
0.279, -1.689e-5
0.278, -1.687e-5
0.277, -1.682e-5
0.276, -1.689e-5
0.275, -1.682e-5
0.274, -1.677e-5
0.273, -1.683e-5
0.272, -1.673e-5
0.271, -1.676e-5
0.270, -1.669e-5
0.269, -1.657e-5
0.268, -1.672e-5
0.267, -1.663e-5
0.266, -1.659e-5
0.265, -1.671e-5
0.264, -1.647e-5
0.263, -1.659e-5
0.262, -1.656e-5
0.261, -1.647e-5
0.260, -1.651e-5
0.259, -1.641e-5
0.258, -1.641e-5
0.257, -1.644e-5
0.256, -1.640e-5
0.255, -1.643e-5
0.254, -1.631e-5
0.253, -1.627e-5
0.252, -1.634e-5
0.251, -1.629e-5
0.250, -1.617e-5
0.249, -1.628e-5
0.248, -1.617e-5
0.247, -1.618e-5
0.246, -1.613e-5
0.245, -1.616e-5
0.244, -1.612e-5
0.243, -1.597e-5
0.242, -1.609e-5
0.241, -1.609e-5
0.240, -8.535e-6
0.241, -1.050e-7
0.242, 1.802e-6
0.243, 2.988e-6
0.244, 3.943e-6
0.245, 4.636e-6
0.246, 5.358e-6
0.247, 5.927e-6
0.248, 6.399e-6
0.249, 6.931e-6
0.250, 7.338e-6
0.251, 7.716e-6
0.252, 8.138e-6
0.253, 8.506e-6
0.254, 8.779e-6
0.255, 9.193e-6
0.256, 9.518e-6
0.257, 9.878e-6
0.258, 1.015e-5
0.259, 1.040e-5
0.260, 1.078e-5
0.261, 1.099e-5
0.262, 1.128e-5
0.263, 1.159e-5
0.264, 1.180e-5
0.265, 1.207e-5
0.266, 1.229e-5
0.267, 1.261e-5
0.268, 1.296e-5
0.269, 1.304e-5
0.270, 1.337e-5
0.271, 1.372e-5
0.272, 1.385e-5
0.273, 1.423e-5
0.274, 1.451e-5
0.275, 1.471e-5
0.276, 1.506e-5
0.277, 1.531e-5
0.278, 1.550e-5
0.279, 1.581e-5
0.280, 1.612e-5
0.281, 1.645e-5
0.282, 1.669e-5
0.283, 1.700e-5
0.284, 1.728e-5
0.285, 1.752e-5
0.286, 1.782e-5
0.287, 1.822e-5
0.288, 1.840e-5
0.289, 1.880e-5
0.290, 1.906e-5
0.291, 1.935e-5
0.292, 1.971e-5
0.293, 2.008e-5
0.294, 2.030e-5
0.295, 2.066e-5
0.296, 2.102e-5
0.297, 2.141e-5
0.298, 2.165e-5
0.299, 2.207e-5
0.300, 2.253e-5
0.301, 2.285e-5
0.302, 2.324e-5
0.303, 2.358e-5
0.304, 2.395e-5
0.305, 2.446e-5
0.306, 2.481e-5
0.307, 2.566e-5
0.308, 2.587e-5
0.309, 2.609e-5
0.310, 2.655e-5
0.311, 2.697e-5
0.312, 2.737e-5
0.313, 2.797e-5
0.314, 2.832e-5
0.315, 2.877e-5
0.316, 2.928e-5
0.317, 2.975e-5
0.318, 3.029e-5
0.319, 3.085e-5
0.320, 3.115e-5
0.321, 3.191e-5
0.322, 3.235e-5
0.323, 3.293e-5
0.324, 3.352e-5
0.325, 3.400e-5
0.326, 3.460e-5
0.327, 3.527e-5
0.328, 3.575e-5
0.329, 3.644e-5
0.330, 3.705e-5
0.331, 3.769e-5
0.332, 3.830e-5
0.333, 3.911e-5
0.334, 3.970e-5
0.335, 4.041e-5
0.336, 4.099e-5
0.337, 4.179e-5
0.338, 4.242e-5
0.339, 4.320e-5
0.340, 3.253e-5
0.339, 1.588e-5
0.338, 1.018e-5
0.337, 6.519e-6
0.336, 3.804e-6
0.335, 1.512e-6
0.334, -2.969e-7
0.333, -2.003e-6
0.332, -3.483e-6
0.331, -4.562e-6
0.330, -5.592e-6
0.329, -6.766e-6
0.328, -7.610e-6
0.327, -8.415e-6
0.326, -9.062e-6
0.325, -9.802e-6
0.324, -1.045e-5
0.323, -1.093e-5
0.322, -1.145e-5
0.321, -1.201e-5
0.320, -1.215e-5
0.319, -1.277e-5
0.318, -1.314e-5
0.317, -1.344e-5
0.316, -1.386e-5
0.315, -1.409e-5
0.314, -1.436e-5
0.313, -1.460e-5
0.312, -1.486e-5
0.311, -1.511e-5
0.310, -1.529e-5
0.309, -1.543e-5
0.308, -1.575e-5
0.307, -1.619e-5
0.306, -1.604e-5
0.305, -1.615e-5
0.304, -1.618e-5
0.303, -1.636e-5
0.302, -1.647e-5
0.301, -1.647e-5
0.300, -1.652e-5
0.299, -1.663e-5
0.298, -1.674e-5
0.297, -1.677e-5
0.296, -1.677e-5
0.295, -1.680e-5
0.294, -1.684e-5
0.293, -1.691e-5
0.292, -1.700e-5
0.291, -1.697e-5
0.290, -1.697e-5
0.289, -1.702e-5
0.288, -1.705e-5
0.287, -1.708e-5
0.286, -1.707e-5
0.285, -1.710e-5
0.284, -1.706e-5
0.283, -1.701e-5
0.282, -1.721e-5
0.281, -1.706e-5
0.280, -1.703e-5
0.279, -1.709e-5
0.278, -1.702e-5
0.277, -1.704e-5
0.276, -1.706e-5
0.275, -1.704e-5
0.274, -1.691e-5
0.273, -1.699e-5
0.272, -1.688e-5
0.271, -1.690e-5
0.270, -1.693e-5
0.269, -1.680e-5
0.268, -1.687e-5
0.267, -1.682e-5
0.266, -1.678e-5
0.265, -1.681e-5
0.264, -1.667e-5
0.263, -1.676e-5
0.262, -1.673e-5
0.261, -1.669e-5
0.260, -1.667e-5
0.259, -1.659e-5
0.258, -1.660e-5
0.257, -1.659e-5
0.256, -1.656e-5
0.255, -1.655e-5
0.254, -1.648e-5
0.253, -1.648e-5
0.252, -1.650e-5
0.251, -1.639e-5
0.250, -1.639e-5
0.249, -1.644e-5
0.248, -1.635e-5
0.247, -1.632e-5
0.246, -1.636e-5
0.245, -1.630e-5
0.244, -1.626e-5
0.243, -1.608e-5
0.242, -1.618e-5
0.241, -1.623e-5
0.240, -8.730e-6
0.241, -2.601e-7
0.242, 1.677e-6
0.243, 2.798e-6
0.244, 3.807e-6
0.245, 4.546e-6
0.246, 5.228e-6
0.247, 5.845e-6
0.248, 6.278e-6
0.249, 6.792e-6
0.250, 7.214e-6
0.251, 7.627e-6
0.252, 8.015e-6
0.253, 8.358e-6
0.254, 8.673e-6
0.255, 9.080e-6
0.256, 9.433e-6
0.257, 9.759e-6
0.258, 9.923e-6
0.259, 1.025e-5
0.260, 1.063e-5
0.261, 1.081e-5
0.262, 1.116e-5
0.263, 1.147e-5
0.264, 1.168e-5
0.265, 1.195e-5
0.266, 1.218e-5
0.267, 1.251e-5
0.268, 1.274e-5
0.269, 1.292e-5
0.270, 1.327e-5
0.271, 1.358e-5
0.272, 1.374e-5
0.273, 1.408e-5
0.274, 1.428e-5
0.275, 1.458e-5
0.276, 1.489e-5
0.277, 1.513e-5
0.278, 1.532e-5
0.279, 1.571e-5
0.280, 1.597e-5
0.281, 1.628e-5
0.282, 1.657e-5
0.283, 1.679e-5
0.284, 1.710e-5
0.285, 1.732e-5
0.286, 1.771e-5
0.287, 1.801e-5
0.288, 1.827e-5
0.289, 1.861e-5
0.290, 1.890e-5
0.291, 1.922e-5
0.292, 1.953e-5
0.293, 1.981e-5
0.294, 2.011e-5
0.295, 2.053e-5
0.296, 2.080e-5
0.297, 2.128e-5
0.298, 2.152e-5
0.299, 2.187e-5
0.300, 2.238e-5
0.301, 2.260e-5
0.302, 2.294e-5
0.303, 2.345e-5
0.304, 2.367e-5
0.305, 2.413e-5
0.306, 2.459e-5
0.307, 2.550e-5
0.308, 2.562e-5
0.309, 2.590e-5
0.310, 2.637e-5
0.311, 2.674e-5
0.312, 2.722e-5
0.313, 2.772e-5
0.314, 2.814e-5
0.315, 2.858e-5
0.316, 2.908e-5
0.317, 2.949e-5
0.318, 3.002e-5
0.319, 3.061e-5
0.320, 3.093e-5
0.321, 3.162e-5
0.322, 3.203e-5
0.323, 3.261e-5
0.324, 3.327e-5
0.325, 3.369e-5
0.326, 3.433e-5
0.327, 3.508e-5
0.328, 3.545e-5
0.329, 3.610e-5
0.330, 3.683e-5
0.331, 3.736e-5
0.332, 3.803e-5
0.333, 3.881e-5
0.334, 3.945e-5
0.335, 4.012e-5
0.336, 4.072e-5
0.337, 4.148e-5
0.338, 4.217e-5
0.339, 4.282e-5
0.340, 3.216e-5
0.339, 1.559e-5
0.338, 9.921e-6
0.337, 6.246e-6
0.336, 3.572e-6
0.335, 1.256e-6
0.334, -6.283e-7
0.333, -2.314e-6
0.332, -3.664e-6
0.331, -4.896e-6
0.330, -5.886e-6
0.329, -6.884e-6
0.328, -7.806e-6
0.327, -8.647e-6
0.326, -9.297e-6
0.325, -1.004e-5
0.324, -1.060e-5
0.323, -1.105e-5
0.322, -1.168e-5
0.321, -1.217e-5
0.320, -1.236e-5
0.319, -1.303e-5
0.318, -1.336e-5
0.317, -1.361e-5
0.316, -1.400e-5
0.315, -1.433e-5
0.314, -1.455e-5
0.313, -1.482e-5
0.312, -1.499e-5
0.311, -1.525e-5
0.310, -1.544e-5
0.309, -1.559e-5
0.308, -1.589e-5
0.307, -1.639e-5
0.306, -1.617e-5
0.305, -1.628e-5
0.304, -1.636e-5
0.303, -1.641e-5
0.302, -1.655e-5
0.301, -1.668e-5
0.300, -1.674e-5
0.299, -1.680e-5
0.298, -1.683e-5
0.297, -1.695e-5
0.296, -1.696e-5
0.295, -1.702e-5
0.294, -1.692e-5
0.293, -1.708e-5
0.292, -1.713e-5
0.291, -1.712e-5
0.290, -1.705e-5
0.289, -1.724e-5
0.288, -1.724e-5
0.287, -1.719e-5
0.286, -1.719e-5
0.285, -1.719e-5
0.284, -1.721e-5
0.283, -1.719e-5
0.282, -1.724e-5
0.281, -1.729e-5
0.280, -1.712e-5
0.279, -1.721e-5
0.278, -1.717e-5
0.277, -1.711e-5
0.276, -1.719e-5
0.275, -1.715e-5
0.274, -1.704e-5
0.273, -1.712e-5
0.272, -1.703e-5
0.271, -1.707e-5
0.270, -1.700e-5
0.269, -1.692e-5
0.268, -1.700e-5
0.267, -1.692e-5
0.266, -1.691e-5
0.265, -1.694e-5
0.264, -1.685e-5
0.263, -1.686e-5
0.262, -1.683e-5
0.261, -1.678e-5
0.260, -1.676e-5
0.259, -1.672e-5
0.258, -1.671e-5
0.257, -1.670e-5
0.256, -1.671e-5
0.255, -1.664e-5
0.254, -1.658e-5
0.253, -1.660e-5
0.252, -1.662e-5
0.251, -1.654e-5
0.250, -1.650e-5
0.249, -1.654e-5
0.248, -1.644e-5
0.247, -1.645e-5
0.246, -1.639e-5
0.245, -1.644e-5
0.244, -1.637e-5
0.243, -1.626e-5
0.242, -1.634e-5
0.241, -1.635e-5
0.240, -8.758e-6
0.241, -3.998e-7
0.242, 1.618e-6
0.243, 2.725e-6
0.244, 3.719e-6
0.245, 4.434e-6
0.246, 5.124e-6
0.247, 5.703e-6
0.248, 6.140e-6
0.249, 6.742e-6
0.250, 7.152e-6
0.251, 7.501e-6
0.252, 7.938e-6
0.253, 8.294e-6
0.254, 8.598e-6
0.255, 8.957e-6
0.256, 9.356e-6
0.257, 9.653e-6
0.258, 9.839e-6
0.259, 1.017e-5
0.260, 1.051e-5
0.261, 1.080e-5
0.262, 1.100e-5
0.263, 1.138e-5
0.264, 1.156e-5
0.265, 1.184e-5
0.266, 1.211e-5
0.267, 1.240e-5
0.268, 1.265e-5
0.269, 1.283e-5
0.270, 1.318e-5
0.271, 1.343e-5
0.272, 1.363e-5
0.273, 1.396e-5
0.274, 1.422e-5
0.275, 1.449e-5
0.276, 1.481e-5
0.277, 1.503e-5
0.278, 1.525e-5
0.279, 1.557e-5
0.280, 1.582e-5
0.281, 1.617e-5
0.282, 1.643e-5
0.283, 1.674e-5
0.284, 1.700e-5
0.285, 1.727e-5
0.286, 1.754e-5
0.287, 1.794e-5
0.288, 1.812e-5
0.289, 1.849e-5
0.290, 1.877e-5
0.291, 1.901e-5
0.292, 1.939e-5
0.293, 1.974e-5
0.294, 1.997e-5
0.295, 2.033e-5
0.296, 2.069e-5
0.297, 2.108e-5
0.298, 2.136e-5
0.299, 2.177e-5
0.300, 2.218e-5
0.301, 2.246e-5
0.302, 2.288e-5
0.303, 2.331e-5
0.304, 2.363e-5
0.305, 2.401e-5
0.306, 2.442e-5
0.307, 2.531e-5
0.308, 2.548e-5
0.309, 2.572e-5
0.310, 2.615e-5
0.311, 2.660e-5
0.312, 2.702e-5
0.313, 2.758e-5
0.314, 2.789e-5
0.315, 2.840e-5
0.316, 2.898e-5
0.317, 2.939e-5
0.318, 2.979e-5
0.319, 3.043e-5
0.320, 3.074e-5
0.321, 3.137e-5
0.322, 3.192e-5
0.323, 3.244e-5
0.324, 3.307e-5
0.325, 3.355e-5
0.326, 3.418e-5
0.327, 3.482e-5
0.328, 3.526e-5
0.329, 3.599e-5
0.330, 3.654e-5
0.331, 3.706e-5
0.332, 3.783e-5
0.333, 3.861e-5
0.334, 3.922e-5
0.335, 3.987e-5
0.336, 4.050e-5
0.337, 4.129e-5
0.338, 4.187e-5
0.339, 4.272e-5
0.340, 3.211e-5
0.339, 1.531e-5
0.338, 9.685e-6
0.337, 6.025e-6
0.336, 3.368e-6
0.335, 1.069e-6
0.334, -7.116e-7
0.333, -2.505e-6
0.332, -3.832e-6
0.331, -5.059e-6
0.330, -6.009e-6
0.329, -7.103e-6
0.328, -7.995e-6
0.327, -8.741e-6
0.326, -9.544e-6
0.325, -1.022e-5
0.324, -1.079e-5
0.323, -1.126e-5
0.322, -1.177e-5
0.321, -1.234e-5
0.320, -1.261e-5
0.319, -1.308e-5
0.318, -1.352e-5
0.317, -1.373e-5
0.316, -1.419e-5
0.315, -1.438e-5
0.314, -1.467e-5
0.313, -1.494e-5
0.312, -1.518e-5
0.311, -1.537e-5
0.310, -1.555e-5
0.309, -1.576e-5
0.308, -1.603e-5
0.307, -1.656e-5
0.306, -1.628e-5
0.305, -1.646e-5
0.304, -1.643e-5
0.303, -1.656e-5
0.302, -1.677e-5
0.301, -1.678e-5
0.300, -1.687e-5
0.299, -1.690e-5
0.298, -1.696e-5
0.297, -1.703e-5
0.296, -1.703e-5
0.295, -1.714e-5
0.294, -1.707e-5
0.293, -1.712e-5
0.292, -1.724e-5
0.291, -1.724e-5
0.290, -1.726e-5
0.289, -1.734e-5
0.288, -1.727e-5
0.287, -1.724e-5
0.286, -1.731e-5
0.285, -1.731e-5
0.284, -1.727e-5
0.283, -1.730e-5
0.282, -1.741e-5
0.281, -1.740e-5
0.280, -1.717e-5
0.279, -1.736e-5
0.278, -1.730e-5
0.277, -1.722e-5
0.276, -1.722e-5
0.275, -1.717e-5
0.274, -1.719e-5
0.273, -1.717e-5
0.272, -1.716e-5
0.271, -1.719e-5
0.270, -1.709e-5
0.269, -1.697e-5
0.268, -1.707e-5
0.267, -1.697e-5
0.266, -1.700e-5
0.265, -1.703e-5
0.264, -1.689e-5
0.263, -1.694e-5
0.262, -1.692e-5
0.261, -1.690e-5
0.260, -1.687e-5
0.259, -1.682e-5
0.258, -1.682e-5
0.257, -1.675e-5
0.256, -1.685e-5
0.255, -1.675e-5
0.254, -1.673e-5
0.253, -1.664e-5
0.252, -1.670e-5
0.251, -1.661e-5
0.250, -1.656e-5
0.249, -1.663e-5
0.248, -1.657e-5
0.247, -1.656e-5
0.246, -1.652e-5
0.245, -1.654e-5
0.244, -1.647e-5
0.243, -1.635e-5
0.242, -1.642e-5
0.241, -1.640e-5
0.240, -8.924e-6
0.241, -4.449e-7
0.242, 1.543e-6
0.243, 2.645e-6
0.244, 3.651e-6
0.245, 4.399e-6
0.246, 5.090e-6
0.247, 5.645e-6
0.248, 6.121e-6
0.249, 6.615e-6
0.250, 7.092e-6
0.251, 7.452e-6
0.252, 7.847e-6
0.253, 8.206e-6
0.254, 8.551e-6
0.255, 8.909e-6
0.256, 9.244e-6
0.257, 9.546e-6
0.258, 9.801e-6
0.259, 1.011e-5
0.260, 1.043e-5
0.261, 1.068e-5
0.262, 1.095e-5
0.263, 1.124e-5
0.264, 1.148e-5
0.265, 1.180e-5
0.266, 1.206e-5
0.267, 1.231e-5
0.268, 1.261e-5
0.269, 1.270e-5
0.270, 1.306e-5
0.271, 1.337e-5
0.272, 1.360e-5
0.273, 1.386e-5
0.274, 1.408e-5
0.275, 1.441e-5
0.276, 1.475e-5
0.277, 1.492e-5
0.278, 1.521e-5
0.279, 1.548e-5
0.280, 1.574e-5
0.281, 1.606e-5
0.282, 1.638e-5
0.283, 1.661e-5
0.284, 1.691e-5
0.285, 1.712e-5
0.286, 1.750e-5
0.287, 1.785e-5
0.288, 1.801e-5
0.289, 1.844e-5
0.290, 1.865e-5
0.291, 1.893e-5
0.292, 1.929e-5
0.293, 1.960e-5
0.294, 1.993e-5
0.295, 2.023e-5
0.296, 2.060e-5
0.297, 2.102e-5
0.298, 2.123e-5
0.299, 2.164e-5
0.300, 2.206e-5
0.301, 2.236e-5
0.302, 2.275e-5
0.303, 2.320e-5
0.304, 2.346e-5
0.305, 2.392e-5
0.306, 2.427e-5
0.307, 2.521e-5
0.308, 2.533e-5
0.309, 2.564e-5
0.310, 2.604e-5
0.311, 2.645e-5
0.312, 2.686e-5
0.313, 2.747e-5
0.314, 2.785e-5
0.315, 2.824e-5
0.316, 2.884e-5
0.317, 2.922e-5
0.318, 2.968e-5
0.319, 3.031e-5
0.320, 3.057e-5
0.321, 3.128e-5
0.322, 3.168e-5
0.323, 3.229e-5
0.324, 3.286e-5
0.325, 3.336e-5
0.326, 3.402e-5
0.327, 3.466e-5
0.328, 3.514e-5
0.329, 3.584e-5
0.330, 3.633e-5
0.331, 3.702e-5
0.332, 3.770e-5
0.333, 3.848e-5
0.334, 3.903e-5
0.335, 3.965e-5
0.336, 4.041e-5
0.337, 4.113e-5
0.338, 4.168e-5
0.339, 4.249e-5
0.340, 3.183e-5
0.339, 1.519e-5
0.338, 9.490e-6
0.337, 5.880e-6
0.336, 3.187e-6
0.335, 8.579e-7
0.334, -8.541e-7
0.333, -2.602e-6
0.332, -4.023e-6
0.331, -5.097e-6
0.330, -6.161e-6
0.329, -7.275e-6
0.328, -8.118e-6
0.327, -8.879e-6
0.326, -9.553e-6
0.325, -1.031e-5
0.324, -1.090e-5
0.323, -1.138e-5
0.322, -1.196e-5
0.321, -1.249e-5
0.320, -1.264e-5
0.319, -1.324e-5
0.318, -1.357e-5
0.317, -1.387e-5
0.316, -1.423e-5
0.315, -1.451e-5
0.314, -1.484e-5
0.313, -1.506e-5
0.312, -1.526e-5
0.311, -1.552e-5
0.310, -1.567e-5
0.309, -1.583e-5
0.308, -1.612e-5
0.307, -1.661e-5
0.306, -1.638e-5
0.305, -1.658e-5
0.304, -1.654e-5
0.303, -1.668e-5
0.302, -1.681e-5
0.301, -1.683e-5
0.300, -1.694e-5
0.299, -1.703e-5
0.298, -1.700e-5
0.297, -1.717e-5
0.296, -1.708e-5
0.295, -1.718e-5
0.294, -1.718e-5
0.293, -1.719e-5
0.292, -1.729e-5
0.291, -1.728e-5
0.290, -1.735e-5
0.289, -1.737e-5
0.288, -1.740e-5
0.287, -1.730e-5
0.286, -1.741e-5
0.285, -1.737e-5
0.284, -1.741e-5
0.283, -1.734e-5
0.282, -1.741e-5
0.281, -1.748e-5
0.280, -1.731e-5
0.279, -1.737e-5
0.278, -1.736e-5
0.277, -1.732e-5
0.276, -1.733e-5
0.275, -1.726e-5
0.274, -1.728e-5
0.273, -1.731e-5
0.272, -1.717e-5
0.271, -1.723e-5
0.270, -1.712e-5
0.269, -1.707e-5
0.268, -1.717e-5
0.267, -1.711e-5
0.266, -1.700e-5
0.265, -1.713e-5
0.264, -1.699e-5
0.263, -1.700e-5
0.262, -1.703e-5
0.261, -1.695e-5
0.260, -1.696e-5
0.259, -1.684e-5
0.258, -1.690e-5
0.257, -1.686e-5
0.256, -1.685e-5
0.255, -1.685e-5
0.254, -1.675e-5
0.253, -1.669e-5
0.252, -1.677e-5
0.251, -1.672e-5
0.250, -1.668e-5
0.249, -1.671e-5
0.248, -1.664e-5
0.247, -1.660e-5
0.246, -1.656e-5
0.245, -1.660e-5
0.244, -1.653e-5
0.243, -1.641e-5
0.242, -1.648e-5
0.241, -1.650e-5
0.240, -8.944e-6
0.241, -4.695e-7
0.242, 1.439e-6
0.243, 2.617e-6
0.244, 3.587e-6
0.245, 4.300e-6
0.246, 4.980e-6
0.247, 5.627e-6
0.248, 6.033e-6
0.249, 6.604e-6
0.250, 7.027e-6
0.251, 7.359e-6
0.252, 7.818e-6
0.253, 8.167e-6
0.254, 8.462e-6
0.255, 8.875e-6
0.256, 9.222e-6
0.257, 9.453e-6
0.258, 9.704e-6
0.259, 1.006e-5
0.260, 1.039e-5
0.261, 1.059e-5
0.262, 1.088e-5
0.263, 1.126e-5
0.264, 1.142e-5
0.265, 1.175e-5
0.266, 1.194e-5
0.267, 1.223e-5
0.268, 1.250e-5
0.269, 1.266e-5
0.270, 1.300e-5
0.271, 1.331e-5
0.272, 1.350e-5
0.273, 1.383e-5
0.274, 1.408e-5
0.275, 1.433e-5
0.276, 1.466e-5
0.277, 1.488e-5
0.278, 1.511e-5
0.279, 1.540e-5
0.280, 1.570e-5
0.281, 1.602e-5
0.282, 1.624e-5
0.283, 1.655e-5
0.284, 1.689e-5
0.285, 1.698e-5
0.286, 1.740e-5
0.287, 1.774e-5
0.288, 1.795e-5
0.289, 1.835e-5
0.290, 1.860e-5
0.291, 1.889e-5
0.292, 1.924e-5
0.293, 1.956e-5
0.294, 1.981e-5
0.295, 2.015e-5
0.296, 2.055e-5
0.297, 2.082e-5
0.298, 2.116e-5
0.299, 2.161e-5
0.300, 2.202e-5
0.301, 2.228e-5
0.302, 2.261e-5
0.303, 2.310e-5
0.304, 2.345e-5
0.305, 2.378e-5
0.306, 2.413e-5
0.307, 2.513e-5
0.308, 2.523e-5
0.309, 2.555e-5
0.310, 2.595e-5
0.311, 2.641e-5
0.312, 2.677e-5
0.313, 2.729e-5
0.314, 2.775e-5
0.315, 2.814e-5
0.316, 2.868e-5
0.317, 2.912e-5
0.318, 2.957e-5
0.319, 3.012e-5
0.320, 3.046e-5
0.321, 3.112e-5
0.322, 3.159e-5
0.323, 3.221e-5
0.324, 3.281e-5
0.325, 3.325e-5
0.326, 3.384e-5
0.327, 3.458e-5
0.328, 3.501e-5
0.329, 3.568e-5
0.330, 3.630e-5
0.331, 3.682e-5
0.332, 3.747e-5
0.333, 3.832e-5
0.334, 3.892e-5
0.335, 3.951e-5
0.336, 4.020e-5
0.337, 4.096e-5
0.338, 4.151e-5
0.339, 4.233e-5
0.340, 3.173e-5
0.339, 1.508e-5
0.338, 9.356e-6
0.337, 5.765e-6
0.336, 3.063e-6
0.335, 6.983e-7
0.334, -1.009e-6
0.333, -2.721e-6
0.332, -4.076e-6
0.331, -5.228e-6
0.330, -6.278e-6
0.329, -7.416e-6
0.328, -8.233e-6
0.327, -8.897e-6
0.326, -9.702e-6
0.325, -1.029e-5
0.324, -1.102e-5
0.323, -1.148e-5
0.322, -1.201e-5
0.321, -1.256e-5
0.320, -1.274e-5
0.319, -1.339e-5
0.318, -1.366e-5
0.317, -1.394e-5
0.316, -1.436e-5
0.315, -1.460e-5
0.314, -1.486e-5
0.313, -1.515e-5
0.312, -1.536e-5
0.311, -1.557e-5
0.310, -1.574e-5
0.309, -1.598e-5
0.308, -1.616e-5
0.307, -1.673e-5
0.306, -1.647e-5
0.305, -1.656e-5
0.304, -1.667e-5
0.303, -1.672e-5
0.302, -1.691e-5
0.301, -1.689e-5
0.300, -1.699e-5
0.299, -1.714e-5
0.298, -1.712e-5
0.297, -1.709e-5
0.296, -1.721e-5
0.295, -1.727e-5
0.294, -1.724e-5
0.293, -1.731e-5
0.292, -1.737e-5
0.291, -1.738e-5
0.290, -1.730e-5
0.289, -1.751e-5
0.288, -1.743e-5
0.287, -1.745e-5
0.286, -1.744e-5
0.285, -1.748e-5
0.284, -1.747e-5
0.283, -1.735e-5
0.282, -1.755e-5
0.281, -1.748e-5
0.280, -1.736e-5
0.279, -1.742e-5
0.278, -1.744e-5
0.277, -1.732e-5
0.276, -1.742e-5
0.275, -1.736e-5
0.274, -1.734e-5
0.273, -1.729e-5
0.272, -1.725e-5
0.271, -1.725e-5
0.270, -1.722e-5
0.269, -1.712e-5
0.268, -1.718e-5
0.267, -1.711e-5
0.266, -1.713e-5
0.265, -1.714e-5
0.264, -1.701e-5
0.263, -1.709e-5
0.262, -1.705e-5
0.261, -1.697e-5
0.260, -1.702e-5
0.259, -1.691e-5
0.258, -1.697e-5
0.257, -1.690e-5
0.256, -1.693e-5
0.255, -1.690e-5
0.254, -1.682e-5
0.253, -1.678e-5
0.252, -1.677e-5
0.251, -1.677e-5
0.250, -1.671e-5
0.249, -1.679e-5
0.248, -1.669e-5
0.247, -1.664e-5
0.246, -1.666e-5
0.245, -1.666e-5
0.244, -1.660e-5
0.243, -1.650e-5
0.242, -1.655e-5
0.241, -1.657e-5
0.240, -9.038e-6
0.241, -5.150e-7
0.242, 1.394e-6
0.243, 2.556e-6
0.244, 3.524e-6
0.245, 4.253e-6
0.246, 4.969e-6
0.247, 5.594e-6
0.248, 6.043e-6
0.249, 6.551e-6
0.250, 6.980e-6
0.251, 7.361e-6
0.252, 7.752e-6
0.253, 8.134e-6
0.254, 8.431e-6
0.255, 8.824e-6
0.256, 9.140e-6
0.257, 9.473e-6
0.258, 9.698e-6
0.259, 9.978e-6
0.260, 1.033e-5
0.261, 1.052e-5
0.262, 1.084e-5
0.263, 1.118e-5
0.264, 1.132e-5
0.265, 1.167e-5
0.266, 1.194e-5
0.267, 1.217e-5
0.268, 1.250e-5
0.269, 1.265e-5
0.270, 1.296e-5
0.271, 1.324e-5
0.272, 1.345e-5
0.273, 1.380e-5
0.274, 1.402e-5
0.275, 1.424e-5
0.276, 1.466e-5
0.277, 1.480e-5
0.278, 1.499e-5
0.279, 1.536e-5
0.280, 1.561e-5
0.281, 1.592e-5
0.282, 1.620e-5
0.283, 1.650e-5
0.284, 1.680e-5
0.285, 1.697e-5
0.286, 1.735e-5
0.287, 1.766e-5
0.288, 1.795e-5
0.289, 1.820e-5
0.290, 1.853e-5
0.291, 1.880e-5
0.292, 1.916e-5
0.293, 1.950e-5
0.294, 1.973e-5
0.295, 2.006e-5
0.296, 2.042e-5
0.297, 2.085e-5
0.298, 2.113e-5
0.299, 2.152e-5
0.300, 2.192e-5
0.301, 2.220e-5
0.302, 2.251e-5
0.303, 2.304e-5
0.304, 2.333e-5
0.305, 2.373e-5
0.306, 2.410e-5
0.307, 2.500e-5
0.308, 2.512e-5
0.309, 2.547e-5
0.310, 2.587e-5
0.311, 2.625e-5
0.312, 2.664e-5
0.313, 2.723e-5
0.314, 2.766e-5
0.315, 2.799e-5
0.316, 2.865e-5
0.317, 2.902e-5
0.318, 2.954e-5
0.319, 3.004e-5
0.320, 3.039e-5
0.321, 3.098e-5
0.322, 3.154e-5
0.323, 3.209e-5
0.324, 3.269e-5
0.325, 3.318e-5
0.326, 3.377e-5
0.327, 3.440e-5
0.328, 3.491e-5
0.329, 3.563e-5
0.330, 3.617e-5
0.331, 3.676e-5
0.332, 3.744e-5
0.333, 3.820e-5
0.334, 3.876e-5
0.335, 3.945e-5
0.336, 4.009e-5
0.337, 4.086e-5
0.338, 4.141e-5
0.339, 4.219e-5
0.340, 3.150e-5
0.339, 1.489e-5
0.338, 9.267e-6
0.337, 5.684e-6
0.336, 3.008e-6
0.335, 7.101e-7
0.334, -1.153e-6
0.333, -2.822e-6
0.332, -4.200e-6
0.331, -5.392e-6
0.330, -6.325e-6
0.329, -7.433e-6
0.328, -8.285e-6
0.327, -9.032e-6
0.326, -9.847e-6
0.325, -1.047e-5
0.324, -1.102e-5
0.323, -1.157e-5
0.322, -1.211e-5
0.321, -1.267e-5
0.320, -1.281e-5
0.319, -1.337e-5
0.318, -1.377e-5
0.317, -1.403e-5
0.316, -1.439e-5
0.315, -1.473e-5
0.314, -1.493e-5
0.313, -1.519e-5
0.312, -1.546e-5
0.311, -1.563e-5
0.310, -1.576e-5
0.309, -1.599e-5
0.308, -1.623e-5
0.307, -1.678e-5
0.306, -1.651e-5
0.305, -1.669e-5
0.304, -1.665e-5
0.303, -1.679e-5
0.302, -1.693e-5
0.301, -1.697e-5
0.300, -1.707e-5
0.299, -1.715e-5
0.298, -1.718e-5
0.297, -1.725e-5
0.296, -1.726e-5
0.295, -1.726e-5
0.294, -1.728e-5
0.293, -1.738e-5
0.292, -1.743e-5
0.291, -1.741e-5
0.290, -1.739e-5
0.289, -1.751e-5
0.288, -1.749e-5
0.287, -1.748e-5
0.286, -1.748e-5
0.285, -1.748e-5
0.284, -1.752e-5
0.283, -1.744e-5
0.282, -1.754e-5
0.281, -1.753e-5
0.280, -1.739e-5
0.279, -1.750e-5
0.278, -1.746e-5
0.277, -1.744e-5
0.276, -1.747e-5
0.275, -1.740e-5
0.274, -1.732e-5
0.273, -1.737e-5
0.272, -1.730e-5
0.271, -1.734e-5
0.270, -1.724e-5
0.269, -1.716e-5
0.268, -1.730e-5
0.267, -1.718e-5
0.266, -1.710e-5
0.265, -1.717e-5
0.264, -1.707e-5
0.263, -1.711e-5
0.262, -1.708e-5
0.261, -1.708e-5
0.260, -1.703e-5
0.259, -1.699e-5
0.258, -1.696e-5
0.257, -1.699e-5
0.256, -1.699e-5
0.255, -1.692e-5
0.254, -1.684e-5
0.253, -1.684e-5
0.252, -1.688e-5
0.251, -1.680e-5
0.250, -1.672e-5
0.249, -1.681e-5
0.248, -1.673e-5
0.247, -1.672e-5
0.246, -1.671e-5
0.245, -1.668e-5
0.244, -1.661e-5
0.243, -1.653e-5
0.242, -1.660e-5
0.241, -1.663e-5
