Sept. 21, 2026   17:24:40
Cyclic Voltammetry
File: d:\desktop\sample\ss310 1 cm2\ss310_sheet cv 160 mv.bin
Data Source:  Experiment
Instrument Model:  CHI660D
Header: 
Note: 

Init E (V) = 0.24
High E (V) = 0.34
Low E (V) = 0.24
Init P/N = P
Scan Rate (V/s) = 0.16
Segment = 20
Sample Interval (V) = 0.001
Quiet Time (sec) = 2
Sensitivity (A/V) = 1e-5

Results:

Channel 1:
Segment 1:

Segment 2:

Segment 3:

Segment 4:

Segment 5:

Segment 6:

Segment 7:

Segment 8:

Segment 9:

Segment 10:

Segment 11:

Segment 12:

Segment 13:

Segment 14:

Segment 15:

Segment 16:

Segment 17:

Segment 18:

Segment 19:

Segment 20:

Potential/V, Current/A

0.240, 5.423e-6
0.241, 8.435e-6
0.242, 9.139e-6
0.243, 9.586e-6
0.244, 1.002e-5
0.245, 1.041e-5
0.246, 1.060e-5
0.247, 1.098e-5
0.248, 1.118e-5
0.249, 1.145e-5
0.250, 1.171e-5
0.251, 1.183e-5
0.252, 1.212e-5
0.253, 1.229e-5
0.254, 1.247e-5
0.255, 1.276e-5
0.256, 1.290e-5
0.257, 1.314e-5
0.258, 1.334e-5
0.259, 1.349e-5
0.260, 1.374e-5
0.261, 1.394e-5
0.262, 1.410e-5
0.263, 1.437e-5
0.264, 1.453e-5
0.265, 1.471e-5
0.266, 1.492e-5
0.267, 1.512e-5
0.268, 1.538e-5
0.269, 1.547e-5
0.270, 1.574e-5
0.271, 1.600e-5
0.272, 1.621e-5
0.273, 1.644e-5
0.274, 1.662e-5
0.275, 1.691e-5
0.276, 1.714e-5
0.277, 1.735e-5
0.278, 1.760e-5
0.279, 1.787e-5
0.280, 1.806e-5
0.281, 1.839e-5
0.282, 1.866e-5
0.283, 1.890e-5
0.284, 1.913e-5
0.285, 1.937e-5
0.286, 1.967e-5
0.287, 1.999e-5
0.288, 2.021e-5
0.289, 2.049e-5
0.290, 2.081e-5
0.291, 2.110e-5
0.292, 2.141e-5
0.293, 2.174e-5
0.294, 2.188e-5
0.295, 2.231e-5
0.296, 2.262e-5
0.297, 2.295e-5
0.298, 2.329e-5
0.299, 2.366e-5
0.300, 2.398e-5
0.301, 2.433e-5
0.302, 2.465e-5
0.303, 2.513e-5
0.304, 2.535e-5
0.305, 2.577e-5
0.306, 2.619e-5
0.307, 2.695e-5
0.308, 2.710e-5
0.309, 2.745e-5
0.310, 2.782e-5
0.311, 2.826e-5
0.312, 2.862e-5
0.313, 2.903e-5
0.314, 2.956e-5
0.315, 2.994e-5
0.316, 3.035e-5
0.317, 3.087e-5
0.318, 3.130e-5
0.319, 3.187e-5
0.320, 3.211e-5
0.321, 3.276e-5
0.322, 3.328e-5
0.323, 3.362e-5
0.324, 3.427e-5
0.325, 3.479e-5
0.326, 3.526e-5
0.327, 3.591e-5
0.328, 3.634e-5
0.329, 3.698e-5
0.330, 3.753e-5
0.331, 3.811e-5
0.332, 3.874e-5
0.333, 3.942e-5
0.334, 3.988e-5
0.335, 4.057e-5
0.336, 4.118e-5
0.337, 4.175e-5
0.338, 4.242e-5
0.339, 4.311e-5
0.340, 3.238e-5
0.339, 1.904e-5
0.338, 1.425e-5
0.337, 1.104e-5
0.336, 8.631e-6
0.335, 6.630e-6
0.334, 4.902e-6
0.333, 3.325e-6
0.332, 2.063e-6
0.331, 1.011e-6
0.330, -9.148e-8
0.329, -1.039e-6
0.328, -1.819e-6
0.327, -2.691e-6
0.326, -3.396e-6
0.325, -3.978e-6
0.324, -4.690e-6
0.323, -5.095e-6
0.322, -5.750e-6
0.321, -6.262e-6
0.320, -6.468e-6
0.319, -7.053e-6
0.318, -7.430e-6
0.317, -7.800e-6
0.316, -8.208e-6
0.315, -8.368e-6
0.314, -8.783e-6
0.313, -9.095e-6
0.312, -9.226e-6
0.311, -9.529e-6
0.310, -9.723e-6
0.309, -9.892e-6
0.308, -1.025e-5
0.307, -1.066e-5
0.306, -1.058e-5
0.305, -1.075e-5
0.304, -1.075e-5
0.303, -1.098e-5
0.302, -1.105e-5
0.301, -1.116e-5
0.300, -1.132e-5
0.299, -1.136e-5
0.298, -1.144e-5
0.297, -1.159e-5
0.296, -1.159e-5
0.295, -1.169e-5
0.294, -1.176e-5
0.293, -1.182e-5
0.292, -1.191e-5
0.291, -1.189e-5
0.290, -1.198e-5
0.289, -1.209e-5
0.288, -1.209e-5
0.287, -1.216e-5
0.286, -1.212e-5
0.285, -1.213e-5
0.284, -1.218e-5
0.283, -1.218e-5
0.282, -1.233e-5
0.281, -1.229e-5
0.280, -1.228e-5
0.279, -1.227e-5
0.278, -1.231e-5
0.277, -1.228e-5
0.276, -1.231e-5
0.275, -1.230e-5
0.274, -1.231e-5
0.273, -1.232e-5
0.272, -1.226e-5
0.271, -1.231e-5
0.270, -1.237e-5
0.269, -1.219e-5
0.268, -1.236e-5
0.267, -1.228e-5
0.266, -1.227e-5
0.265, -1.232e-5
0.264, -1.222e-5
0.263, -1.226e-5
0.262, -1.224e-5
0.261, -1.227e-5
0.260, -1.222e-5
0.259, -1.219e-5
0.258, -1.219e-5
0.257, -1.225e-5
0.256, -1.223e-5
0.255, -1.215e-5
0.254, -1.215e-5
0.253, -1.216e-5
0.252, -1.219e-5
0.251, -1.208e-5
0.250, -1.211e-5
0.249, -1.214e-5
0.248, -1.206e-5
0.247, -1.213e-5
0.246, -1.206e-5
0.245, -1.205e-5
0.244, -1.200e-5
0.243, -1.196e-5
0.242, -1.205e-5
0.241, -1.202e-5
0.240, -4.954e-6
0.241, 1.308e-6
0.242, 2.812e-6
0.243, 3.701e-6
0.244, 4.508e-6
0.245, 5.180e-6
0.246, 5.609e-6
0.247, 6.162e-6
0.248, 6.570e-6
0.249, 6.941e-6
0.250, 7.335e-6
0.251, 7.648e-6
0.252, 8.004e-6
0.253, 8.289e-6
0.254, 8.582e-6
0.255, 8.906e-6
0.256, 9.177e-6
0.257, 9.441e-6
0.258, 9.681e-6
0.259, 9.922e-6
0.260, 1.020e-5
0.261, 1.043e-5
0.262, 1.064e-5
0.263, 1.096e-5
0.264, 1.117e-5
0.265, 1.137e-5
0.266, 1.162e-5
0.267, 1.188e-5
0.268, 1.213e-5
0.269, 1.230e-5
0.270, 1.249e-5
0.271, 1.284e-5
0.272, 1.298e-5
0.273, 1.328e-5
0.274, 1.349e-5
0.275, 1.375e-5
0.276, 1.402e-5
0.277, 1.422e-5
0.278, 1.450e-5
0.279, 1.476e-5
0.280, 1.498e-5
0.281, 1.532e-5
0.282, 1.557e-5
0.283, 1.571e-5
0.284, 1.605e-5
0.285, 1.632e-5
0.286, 1.656e-5
0.287, 1.686e-5
0.288, 1.710e-5
0.289, 1.735e-5
0.290, 1.765e-5
0.291, 1.797e-5
0.292, 1.828e-5
0.293, 1.858e-5
0.294, 1.874e-5
0.295, 1.919e-5
0.296, 1.947e-5
0.297, 1.977e-5
0.298, 2.014e-5
0.299, 2.048e-5
0.300, 2.080e-5
0.301, 2.117e-5
0.302, 2.144e-5
0.303, 2.190e-5
0.304, 2.213e-5
0.305, 2.253e-5
0.306, 2.293e-5
0.307, 2.375e-5
0.308, 2.385e-5
0.309, 2.421e-5
0.310, 2.445e-5
0.311, 2.500e-5
0.312, 2.531e-5
0.313, 2.574e-5
0.314, 2.623e-5
0.315, 2.666e-5
0.316, 2.706e-5
0.317, 2.748e-5
0.318, 2.795e-5
0.319, 2.846e-5
0.320, 2.873e-5
0.321, 2.933e-5
0.322, 2.986e-5
0.323, 3.032e-5
0.324, 3.089e-5
0.325, 3.136e-5
0.326, 3.184e-5
0.327, 3.247e-5
0.328, 3.299e-5
0.329, 3.353e-5
0.330, 3.408e-5
0.331, 3.462e-5
0.332, 3.529e-5
0.333, 3.600e-5
0.334, 3.641e-5
0.335, 3.709e-5
0.336, 3.763e-5
0.337, 3.834e-5
0.338, 3.901e-5
0.339, 3.962e-5
0.340, 2.896e-5
0.339, 1.562e-5
0.338, 1.096e-5
0.337, 7.902e-6
0.336, 5.575e-6
0.335, 3.545e-6
0.334, 1.966e-6
0.333, 5.167e-7
0.332, -6.983e-7
0.331, -1.729e-6
0.330, -2.723e-6
0.329, -3.617e-6
0.328, -4.366e-6
0.327, -5.158e-6
0.326, -5.751e-6
0.325, -6.368e-6
0.324, -7.012e-6
0.323, -7.391e-6
0.322, -7.919e-6
0.321, -8.366e-6
0.320, -8.610e-6
0.319, -9.101e-6
0.318, -9.447e-6
0.317, -9.724e-6
0.316, -1.010e-5
0.315, -1.031e-5
0.314, -1.053e-5
0.313, -1.087e-5
0.312, -1.100e-5
0.311, -1.127e-5
0.310, -1.146e-5
0.309, -1.162e-5
0.308, -1.184e-5
0.307, -1.235e-5
0.306, -1.215e-5
0.305, -1.229e-5
0.304, -1.225e-5
0.303, -1.245e-5
0.302, -1.253e-5
0.301, -1.264e-5
0.300, -1.275e-5
0.299, -1.273e-5
0.298, -1.287e-5
0.297, -1.294e-5
0.296, -1.298e-5
0.295, -1.297e-5
0.294, -1.303e-5
0.293, -1.307e-5
0.292, -1.316e-5
0.291, -1.313e-5
0.290, -1.321e-5
0.289, -1.324e-5
0.288, -1.330e-5
0.287, -1.330e-5
0.286, -1.326e-5
0.285, -1.326e-5
0.284, -1.332e-5
0.283, -1.328e-5
0.282, -1.344e-5
0.281, -1.338e-5
0.280, -1.328e-5
0.279, -1.336e-5
0.278, -1.335e-5
0.277, -1.333e-5
0.276, -1.334e-5
0.275, -1.331e-5
0.274, -1.330e-5
0.273, -1.332e-5
0.272, -1.325e-5
0.271, -1.331e-5
0.270, -1.326e-5
0.269, -1.315e-5
0.268, -1.322e-5
0.267, -1.321e-5
0.266, -1.317e-5
0.265, -1.318e-5
0.264, -1.310e-5
0.263, -1.320e-5
0.262, -1.315e-5
0.261, -1.310e-5
0.260, -1.311e-5
0.259, -1.303e-5
0.258, -1.303e-5
0.257, -1.307e-5
0.256, -1.304e-5
0.255, -1.301e-5
0.254, -1.300e-5
0.253, -1.296e-5
0.252, -1.295e-5
0.251, -1.291e-5
0.250, -1.293e-5
0.249, -1.290e-5
0.248, -1.285e-5
0.247, -1.283e-5
0.246, -1.285e-5
0.245, -1.279e-5
0.244, -1.284e-5
0.243, -1.271e-5
0.242, -1.275e-5
0.241, -1.280e-5
0.240, -5.680e-6
0.241, 6.291e-7
0.242, 2.178e-6
0.243, 3.015e-6
0.244, 3.881e-6
0.245, 4.513e-6
0.246, 5.036e-6
0.247, 5.567e-6
0.248, 5.910e-6
0.249, 6.387e-6
0.250, 6.704e-6
0.251, 7.099e-6
0.252, 7.398e-6
0.253, 7.683e-6
0.254, 7.954e-6
0.255, 8.316e-6
0.256, 8.533e-6
0.257, 8.835e-6
0.258, 9.081e-6
0.259, 9.312e-6
0.260, 9.619e-6
0.261, 9.849e-6
0.262, 1.005e-5
0.263, 1.036e-5
0.264, 1.052e-5
0.265, 1.079e-5
0.266, 1.101e-5
0.267, 1.129e-5
0.268, 1.149e-5
0.269, 1.163e-5
0.270, 1.195e-5
0.271, 1.220e-5
0.272, 1.240e-5
0.273, 1.267e-5
0.274, 1.292e-5
0.275, 1.313e-5
0.276, 1.338e-5
0.277, 1.358e-5
0.278, 1.380e-5
0.279, 1.413e-5
0.280, 1.429e-5
0.281, 1.463e-5
0.282, 1.493e-5
0.283, 1.510e-5
0.284, 1.538e-5
0.285, 1.560e-5
0.286, 1.587e-5
0.287, 1.616e-5
0.288, 1.641e-5
0.289, 1.676e-5
0.290, 1.695e-5
0.291, 1.724e-5
0.292, 1.758e-5
0.293, 1.786e-5
0.294, 1.803e-5
0.295, 1.842e-5
0.296, 1.875e-5
0.297, 1.908e-5
0.298, 1.937e-5
0.299, 1.967e-5
0.300, 2.001e-5
0.301, 2.037e-5
0.302, 2.064e-5
0.303, 2.112e-5
0.304, 2.140e-5
0.305, 2.175e-5
0.306, 2.213e-5
0.307, 2.291e-5
0.308, 2.298e-5
0.309, 2.331e-5
0.310, 2.367e-5
0.311, 2.412e-5
0.312, 2.448e-5
0.313, 2.487e-5
0.314, 2.533e-5
0.315, 2.569e-5
0.316, 2.619e-5
0.317, 2.661e-5
0.318, 2.699e-5
0.319, 2.752e-5
0.320, 2.780e-5
0.321, 2.844e-5
0.322, 2.885e-5
0.323, 2.941e-5
0.324, 2.991e-5
0.325, 3.041e-5
0.326, 3.085e-5
0.327, 3.148e-5
0.328, 3.190e-5
0.329, 3.248e-5
0.330, 3.306e-5
0.331, 3.368e-5
0.332, 3.417e-5
0.333, 3.491e-5
0.334, 3.542e-5
0.335, 3.609e-5
0.336, 3.661e-5
0.337, 3.723e-5
0.338, 3.789e-5
0.339, 3.857e-5
0.340, 2.787e-5
0.339, 1.448e-5
0.338, 1.000e-5
0.337, 6.839e-6
0.336, 4.601e-6
0.335, 2.614e-6
0.334, 1.110e-6
0.333, -4.287e-7
0.332, -1.676e-6
0.331, -2.604e-6
0.330, -3.635e-6
0.329, -4.595e-6
0.328, -5.182e-6
0.327, -5.981e-6
0.326, -6.595e-6
0.325, -7.146e-6
0.324, -7.830e-6
0.323, -8.098e-6
0.322, -8.703e-6
0.321, -9.128e-6
0.320, -9.317e-6
0.319, -9.855e-6
0.318, -1.023e-5
0.317, -1.040e-5
0.316, -1.073e-5
0.315, -1.102e-5
0.314, -1.122e-5
0.313, -1.153e-5
0.312, -1.162e-5
0.311, -1.194e-5
0.310, -1.203e-5
0.309, -1.217e-5
0.308, -1.247e-5
0.307, -1.293e-5
0.306, -1.271e-5
0.305, -1.289e-5
0.304, -1.287e-5
0.303, -1.298e-5
0.302, -1.315e-5
0.301, -1.315e-5
0.300, -1.328e-5
0.299, -1.323e-5
0.298, -1.336e-5
0.297, -1.349e-5
0.296, -1.343e-5
0.295, -1.350e-5
0.294, -1.354e-5
0.293, -1.354e-5
0.292, -1.364e-5
0.291, -1.365e-5
0.290, -1.366e-5
0.289, -1.373e-5
0.288, -1.368e-5
0.287, -1.371e-5
0.286, -1.372e-5
0.285, -1.376e-5
0.284, -1.376e-5
0.283, -1.373e-5
0.282, -1.382e-5
0.281, -1.381e-5
0.280, -1.374e-5
0.279, -1.375e-5
0.278, -1.375e-5
0.277, -1.372e-5
0.276, -1.379e-5
0.275, -1.367e-5
0.274, -1.371e-5
0.273, -1.375e-5
0.272, -1.360e-5
0.271, -1.370e-5
0.270, -1.362e-5
0.269, -1.356e-5
0.268, -1.365e-5
0.267, -1.355e-5
0.266, -1.356e-5
0.265, -1.357e-5
0.264, -1.355e-5
0.263, -1.355e-5
0.262, -1.347e-5
0.261, -1.345e-5
0.260, -1.352e-5
0.259, -1.341e-5
0.258, -1.341e-5
0.257, -1.340e-5
0.256, -1.338e-5
0.255, -1.340e-5
0.254, -1.333e-5
0.253, -1.329e-5
0.252, -1.332e-5
0.251, -1.325e-5
0.250, -1.331e-5
0.249, -1.327e-5
0.248, -1.320e-5
0.247, -1.320e-5
0.246, -1.320e-5
0.245, -1.317e-5
0.244, -1.316e-5
0.243, -1.303e-5
0.242, -1.307e-5
0.241, -1.315e-5
0.240, -5.936e-6
0.241, 3.508e-7
0.242, 1.838e-6
0.243, 2.767e-6
0.244, 3.590e-6
0.245, 4.200e-6
0.246, 4.736e-6
0.247, 5.263e-6
0.248, 5.668e-6
0.249, 6.033e-6
0.250, 6.412e-6
0.251, 6.777e-6
0.252, 7.128e-6
0.253, 7.438e-6
0.254, 7.660e-6
0.255, 8.056e-6
0.256, 8.312e-6
0.257, 8.555e-6
0.258, 8.799e-6
0.259, 9.058e-6
0.260, 9.336e-6
0.261, 9.593e-6
0.262, 9.753e-6
0.263, 1.006e-5
0.264, 1.024e-5
0.265, 1.050e-5
0.266, 1.077e-5
0.267, 1.097e-5
0.268, 1.121e-5
0.269, 1.136e-5
0.270, 1.161e-5
0.271, 1.194e-5
0.272, 1.207e-5
0.273, 1.240e-5
0.274, 1.256e-5
0.275, 1.281e-5
0.276, 1.304e-5
0.277, 1.332e-5
0.278, 1.348e-5
0.279, 1.385e-5
0.280, 1.405e-5
0.281, 1.430e-5
0.282, 1.448e-5
0.283, 1.478e-5
0.284, 1.509e-5
0.285, 1.536e-5
0.286, 1.549e-5
0.287, 1.586e-5
0.288, 1.604e-5
0.289, 1.644e-5
0.290, 1.667e-5
0.291, 1.687e-5
0.292, 1.722e-5
0.293, 1.753e-5
0.294, 1.770e-5
0.295, 1.805e-5
0.296, 1.841e-5
0.297, 1.871e-5
0.298, 1.892e-5
0.299, 1.930e-5
0.300, 1.961e-5
0.301, 2.003e-5
0.302, 2.027e-5
0.303, 2.071e-5
0.304, 2.100e-5
0.305, 2.135e-5
0.306, 2.164e-5
0.307, 2.249e-5
0.308, 2.260e-5
0.309, 2.292e-5
0.310, 2.322e-5
0.311, 2.367e-5
0.312, 2.406e-5
0.313, 2.444e-5
0.314, 2.487e-5
0.315, 2.526e-5
0.316, 2.572e-5
0.317, 2.621e-5
0.318, 2.650e-5
0.319, 2.710e-5
0.320, 2.740e-5
0.321, 2.794e-5
0.322, 2.841e-5
0.323, 2.891e-5
0.324, 2.945e-5
0.325, 2.989e-5
0.326, 3.041e-5
0.327, 3.107e-5
0.328, 3.143e-5
0.329, 3.199e-5
0.330, 3.256e-5
0.331, 3.304e-5
0.332, 3.373e-5
0.333, 3.437e-5
0.334, 3.487e-5
0.335, 3.549e-5
0.336, 3.605e-5
0.337, 3.673e-5
0.338, 3.735e-5
0.339, 3.801e-5
0.340, 2.728e-5
0.339, 1.401e-5
0.338, 9.481e-6
0.337, 6.323e-6
0.336, 4.117e-6
0.335, 2.051e-6
0.334, 4.754e-7
0.333, -9.370e-7
0.332, -2.108e-6
0.331, -3.071e-6
0.330, -4.034e-6
0.329, -4.992e-6
0.328, -5.631e-6
0.327, -6.419e-6
0.326, -6.974e-6
0.325, -7.691e-6
0.324, -8.193e-6
0.323, -8.603e-6
0.322, -9.074e-6
0.321, -9.470e-6
0.320, -9.749e-6
0.319, -1.014e-5
0.318, -1.055e-5
0.317, -1.081e-5
0.316, -1.108e-5
0.315, -1.133e-5
0.314, -1.159e-5
0.313, -1.188e-5
0.312, -1.204e-5
0.311, -1.223e-5
0.310, -1.234e-5
0.309, -1.254e-5
0.308, -1.285e-5
0.307, -1.316e-5
0.306, -1.305e-5
0.305, -1.321e-5
0.304, -1.314e-5
0.303, -1.333e-5
0.302, -1.335e-5
0.301, -1.350e-5
0.300, -1.359e-5
0.299, -1.355e-5
0.298, -1.367e-5
0.297, -1.372e-5
0.296, -1.372e-5
0.295, -1.375e-5
0.294, -1.381e-5
0.293, -1.383e-5
0.292, -1.395e-5
0.291, -1.390e-5
0.290, -1.398e-5
0.289, -1.397e-5
0.288, -1.390e-5
0.287, -1.404e-5
0.286, -1.399e-5
0.285, -1.396e-5
0.284, -1.404e-5
0.283, -1.401e-5
0.282, -1.407e-5
0.281, -1.406e-5
0.280, -1.399e-5
0.279, -1.406e-5
0.278, -1.399e-5
0.277, -1.398e-5
0.276, -1.398e-5
0.275, -1.390e-5
0.274, -1.388e-5
0.273, -1.399e-5
0.272, -1.387e-5
0.271, -1.390e-5
0.270, -1.382e-5
0.269, -1.378e-5
0.268, -1.390e-5
0.267, -1.378e-5
0.266, -1.375e-5
0.265, -1.381e-5
0.264, -1.373e-5
0.263, -1.379e-5
0.262, -1.370e-5
0.261, -1.370e-5
0.260, -1.371e-5
0.259, -1.362e-5
0.258, -1.364e-5
0.257, -1.366e-5
0.256, -1.353e-5
0.255, -1.363e-5
0.254, -1.359e-5
0.253, -1.350e-5
0.252, -1.350e-5
0.251, -1.345e-5
0.250, -1.347e-5
0.249, -1.348e-5
0.248, -1.342e-5
0.247, -1.344e-5
0.246, -1.341e-5
0.245, -1.338e-5
0.244, -1.336e-5
0.243, -1.325e-5
0.242, -1.332e-5
0.241, -1.334e-5
0.240, -6.178e-6
0.241, 1.691e-7
0.242, 1.705e-6
0.243, 2.614e-6
0.244, 3.418e-6
0.245, 4.054e-6
0.246, 4.609e-6
0.247, 5.089e-6
0.248, 5.478e-6
0.249, 5.904e-6
0.250, 6.303e-6
0.251, 6.604e-6
0.252, 6.992e-6
0.253, 7.251e-6
0.254, 7.503e-6
0.255, 7.853e-6
0.256, 8.130e-6
0.257, 8.367e-6
0.258, 8.665e-6
0.259, 8.897e-6
0.260, 9.137e-6
0.261, 9.333e-6
0.262, 9.628e-6
0.263, 9.883e-6
0.264, 1.006e-5
0.265, 1.036e-5
0.266, 1.056e-5
0.267, 1.081e-5
0.268, 1.098e-5
0.269, 1.117e-5
0.270, 1.146e-5
0.271, 1.176e-5
0.272, 1.189e-5
0.273, 1.216e-5
0.274, 1.238e-5
0.275, 1.267e-5
0.276, 1.287e-5
0.277, 1.312e-5
0.278, 1.332e-5
0.279, 1.360e-5
0.280, 1.385e-5
0.281, 1.405e-5
0.282, 1.440e-5
0.283, 1.456e-5
0.284, 1.482e-5
0.285, 1.514e-5
0.286, 1.533e-5
0.287, 1.565e-5
0.288, 1.588e-5
0.289, 1.609e-5
0.290, 1.645e-5
0.291, 1.673e-5
0.292, 1.695e-5
0.293, 1.731e-5
0.294, 1.747e-5
0.295, 1.784e-5
0.296, 1.813e-5
0.297, 1.844e-5
0.298, 1.876e-5
0.299, 1.910e-5
0.300, 1.935e-5
0.301, 1.976e-5
0.302, 2.007e-5
0.303, 2.043e-5
0.304, 2.075e-5
0.305, 2.108e-5
0.306, 2.149e-5
0.307, 2.215e-5
0.308, 2.238e-5
0.309, 2.266e-5
0.310, 2.291e-5
0.311, 2.342e-5
0.312, 2.375e-5
0.313, 2.416e-5
0.314, 2.460e-5
0.315, 2.500e-5
0.316, 2.541e-5
0.317, 2.584e-5
0.318, 2.621e-5
0.319, 2.676e-5
0.320, 2.708e-5
0.321, 2.759e-5
0.322, 2.815e-5
0.323, 2.852e-5
0.324, 2.904e-5
0.325, 2.962e-5
0.326, 3.008e-5
0.327, 3.066e-5
0.328, 3.108e-5
0.329, 3.166e-5
0.330, 3.225e-5
0.331, 3.277e-5
0.332, 3.342e-5
0.333, 3.409e-5
0.334, 3.447e-5
0.335, 3.516e-5
0.336, 3.564e-5
0.337, 3.627e-5
0.338, 3.698e-5
0.339, 3.766e-5
0.340, 2.693e-5
0.339, 1.367e-5
0.338, 9.085e-6
0.337, 5.962e-6
0.336, 3.678e-6
0.335, 1.815e-6
0.334, 2.701e-7
0.333, -1.263e-6
0.332, -2.375e-6
0.331, -3.389e-6
0.330, -4.372e-6
0.329, -5.262e-6
0.328, -5.860e-6
0.327, -6.726e-6
0.326, -7.273e-6
0.325, -7.883e-6
0.324, -8.409e-6
0.323, -8.833e-6
0.322, -9.353e-6
0.321, -9.754e-6
0.320, -1.000e-5
0.319, -1.047e-5
0.318, -1.081e-5
0.317, -1.099e-5
0.316, -1.139e-5
0.315, -1.155e-5
0.314, -1.180e-5
0.313, -1.215e-5
0.312, -1.222e-5
0.311, -1.241e-5
0.310, -1.264e-5
0.309, -1.279e-5
0.308, -1.305e-5
0.307, -1.338e-5
0.306, -1.326e-5
0.305, -1.337e-5
0.304, -1.342e-5
0.303, -1.351e-5
0.302, -1.361e-5
0.301, -1.366e-5
0.300, -1.378e-5
0.299, -1.377e-5
0.298, -1.382e-5
0.297, -1.391e-5
0.296, -1.385e-5
0.295, -1.399e-5
0.294, -1.398e-5
0.293, -1.401e-5
0.292, -1.409e-5
0.291, -1.409e-5
0.290, -1.409e-5
0.289, -1.415e-5
0.288, -1.410e-5
0.287, -1.418e-5
0.286, -1.420e-5
0.285, -1.415e-5
0.284, -1.420e-5
0.283, -1.411e-5
0.282, -1.425e-5
0.281, -1.423e-5
0.280, -1.412e-5
0.279, -1.421e-5
0.278, -1.411e-5
0.277, -1.412e-5
0.276, -1.415e-5
0.275, -1.407e-5
0.274, -1.410e-5
0.273, -1.415e-5
0.272, -1.397e-5
0.271, -1.409e-5
0.270, -1.404e-5
0.269, -1.393e-5
0.268, -1.397e-5
0.267, -1.391e-5
0.266, -1.395e-5
0.265, -1.399e-5
0.264, -1.382e-5
0.263, -1.391e-5
0.262, -1.383e-5
0.261, -1.382e-5
0.260, -1.383e-5
0.259, -1.376e-5
0.258, -1.377e-5
0.257, -1.381e-5
0.256, -1.374e-5
0.255, -1.370e-5
0.254, -1.370e-5
0.253, -1.368e-5
0.252, -1.368e-5
0.251, -1.361e-5
0.250, -1.360e-5
0.249, -1.361e-5
0.248, -1.355e-5
0.247, -1.352e-5
0.246, -1.356e-5
0.245, -1.347e-5
0.244, -1.352e-5
0.243, -1.337e-5
0.242, -1.348e-5
0.241, -1.350e-5
0.240, -6.272e-6
0.241, 5.767e-8
0.242, 1.541e-6
0.243, 2.522e-6
0.244, 3.343e-6
0.245, 3.927e-6
0.246, 4.437e-6
0.247, 5.010e-6
0.248, 5.360e-6
0.249, 5.780e-6
0.250, 6.196e-6
0.251, 6.518e-6
0.252, 6.817e-6
0.253, 7.146e-6
0.254, 7.390e-6
0.255, 7.739e-6
0.256, 8.054e-6
0.257, 8.262e-6
0.258, 8.518e-6
0.259, 8.797e-6
0.260, 9.008e-6
0.261, 9.311e-6
0.262, 9.503e-6
0.263, 9.804e-6
0.264, 9.905e-6
0.265, 1.022e-5
0.266, 1.045e-5
0.267, 1.069e-5
0.268, 1.088e-5
0.269, 1.107e-5
0.270, 1.131e-5
0.271, 1.166e-5
0.272, 1.177e-5
0.273, 1.200e-5
0.274, 1.232e-5
0.275, 1.255e-5
0.276, 1.273e-5
0.277, 1.297e-5
0.278, 1.321e-5
0.279, 1.348e-5
0.280, 1.367e-5
0.281, 1.399e-5
0.282, 1.423e-5
0.283, 1.445e-5
0.284, 1.469e-5
0.285, 1.496e-5
0.286, 1.520e-5
0.287, 1.550e-5
0.288, 1.573e-5
0.289, 1.600e-5
0.290, 1.627e-5
0.291, 1.654e-5
0.292, 1.684e-5
0.293, 1.709e-5
0.294, 1.731e-5
0.295, 1.770e-5
0.296, 1.793e-5
0.297, 1.830e-5
0.298, 1.857e-5
0.299, 1.889e-5
0.300, 1.926e-5
0.301, 1.960e-5
0.302, 1.988e-5
0.303, 2.025e-5
0.304, 2.060e-5
0.305, 2.092e-5
0.306, 2.123e-5
0.307, 2.203e-5
0.308, 2.215e-5
0.309, 2.249e-5
0.310, 2.279e-5
0.311, 2.322e-5
0.312, 2.354e-5
0.313, 2.397e-5
0.314, 2.442e-5
0.315, 2.482e-5
0.316, 2.523e-5
0.317, 2.562e-5
0.318, 2.603e-5
0.319, 2.651e-5
0.320, 2.688e-5
0.321, 2.740e-5
0.322, 2.787e-5
0.323, 2.838e-5
0.324, 2.886e-5
0.325, 2.935e-5
0.326, 2.986e-5
0.327, 3.043e-5
0.328, 3.087e-5
0.329, 3.135e-5
0.330, 3.200e-5
0.331, 3.245e-5
0.332, 3.315e-5
0.333, 3.384e-5
0.334, 3.426e-5
0.335, 3.490e-5
0.336, 3.538e-5
0.337, 3.609e-5
0.338, 3.670e-5
0.339, 3.732e-5
0.340, 2.666e-5
0.339, 1.343e-5
0.338, 8.895e-6
0.337, 5.756e-6
0.336, 3.559e-6
0.335, 1.558e-6
0.334, 1.523e-8
0.333, -1.414e-6
0.332, -2.672e-6
0.331, -3.623e-6
0.330, -4.578e-6
0.329, -5.452e-6
0.328, -6.151e-6
0.327, -6.878e-6
0.326, -7.442e-6
0.325, -8.027e-6
0.324, -8.642e-6
0.323, -9.020e-6
0.322, -9.530e-6
0.321, -9.951e-6
0.320, -1.016e-5
0.319, -1.068e-5
0.318, -1.090e-5
0.317, -1.119e-5
0.316, -1.153e-5
0.315, -1.169e-5
0.314, -1.200e-5
0.313, -1.230e-5
0.312, -1.237e-5
0.311, -1.260e-5
0.310, -1.272e-5
0.309, -1.300e-5
0.308, -1.317e-5
0.307, -1.354e-5
0.306, -1.339e-5
0.305, -1.352e-5
0.304, -1.348e-5
0.303, -1.369e-5
0.302, -1.370e-5
0.301, -1.378e-5
0.300, -1.394e-5
0.299, -1.384e-5
0.298, -1.396e-5
0.297, -1.404e-5
0.296, -1.405e-5
0.295, -1.410e-5
0.294, -1.413e-5
0.293, -1.408e-5
0.292, -1.425e-5
0.291, -1.421e-5
0.290, -1.420e-5
0.289, -1.427e-5
0.288, -1.425e-5
0.287, -1.429e-5
0.286, -1.427e-5
0.285, -1.428e-5
0.284, -1.430e-5
0.283, -1.429e-5
0.282, -1.431e-5
0.281, -1.432e-5
0.280, -1.426e-5
0.279, -1.433e-5
0.278, -1.426e-5
0.277, -1.426e-5
0.276, -1.424e-5
0.275, -1.420e-5
0.274, -1.417e-5
0.273, -1.420e-5
0.272, -1.416e-5
0.271, -1.419e-5
0.270, -1.409e-5
0.269, -1.396e-5
0.268, -1.413e-5
0.267, -1.406e-5
0.266, -1.403e-5
0.265, -1.407e-5
0.264, -1.391e-5
0.263, -1.402e-5
0.262, -1.399e-5
0.261, -1.393e-5
0.260, -1.389e-5
0.259, -1.388e-5
0.258, -1.386e-5
0.257, -1.391e-5
0.256, -1.382e-5
0.255, -1.382e-5
0.254, -1.378e-5
0.253, -1.376e-5
0.252, -1.377e-5
0.251, -1.371e-5
0.250, -1.370e-5
0.249, -1.375e-5
0.248, -1.365e-5
0.247, -1.368e-5
0.246, -1.357e-5
0.245, -1.364e-5
0.244, -1.358e-5
0.243, -1.347e-5
0.242, -1.355e-5
0.241, -1.358e-5
0.240, -6.416e-6
0.241, -6.461e-8
0.242, 1.541e-6
0.243, 2.399e-6
0.244, 3.264e-6
0.245, 3.859e-6
0.246, 4.319e-6
0.247, 4.942e-6
0.248, 5.307e-6
0.249, 5.704e-6
0.250, 6.107e-6
0.251, 6.418e-6
0.252, 6.768e-6
0.253, 7.107e-6
0.254, 7.280e-6
0.255, 7.670e-6
0.256, 7.962e-6
0.257, 8.210e-6
0.258, 8.442e-6
0.259, 8.686e-6
0.260, 8.957e-6
0.261, 9.170e-6
0.262, 9.438e-6
0.263, 9.703e-6
0.264, 9.899e-6
0.265, 1.012e-5
0.266, 1.036e-5
0.267, 1.059e-5
0.268, 1.080e-5
0.269, 1.101e-5
0.270, 1.121e-5
0.271, 1.154e-5
0.272, 1.168e-5
0.273, 1.193e-5
0.274, 1.220e-5
0.275, 1.242e-5
0.276, 1.264e-5
0.277, 1.289e-5
0.278, 1.305e-5
0.279, 1.338e-5
0.280, 1.361e-5
0.281, 1.386e-5
0.282, 1.415e-5
0.283, 1.432e-5
0.284, 1.465e-5
0.285, 1.481e-5
0.286, 1.505e-5
0.287, 1.538e-5
0.288, 1.564e-5
0.289, 1.588e-5
0.290, 1.618e-5
0.291, 1.642e-5
0.292, 1.669e-5
0.293, 1.699e-5
0.294, 1.725e-5
0.295, 1.758e-5
0.296, 1.784e-5
0.297, 1.817e-5
0.298, 1.847e-5
0.299, 1.876e-5
0.300, 1.911e-5
0.301, 1.949e-5
0.302, 1.971e-5
0.303, 2.014e-5
0.304, 2.047e-5
0.305, 2.073e-5
0.306, 2.117e-5
0.307, 2.188e-5
0.308, 2.209e-5
0.309, 2.224e-5
0.310, 2.260e-5
0.311, 2.309e-5
0.312, 2.344e-5
0.313, 2.380e-5
0.314, 2.429e-5
0.315, 2.463e-5
0.316, 2.506e-5
0.317, 2.554e-5
0.318, 2.584e-5
0.319, 2.642e-5
0.320, 2.665e-5
0.321, 2.727e-5
0.322, 2.776e-5
0.323, 2.812e-5
0.324, 2.872e-5
0.325, 2.922e-5
0.326, 2.959e-5
0.327, 3.031e-5
0.328, 3.068e-5
0.329, 3.123e-5
0.330, 3.184e-5
0.331, 3.236e-5
0.332, 3.287e-5
0.333, 3.359e-5
0.334, 3.411e-5
0.335, 3.472e-5
0.336, 3.521e-5
0.337, 3.586e-5
0.338, 3.651e-5
0.339, 3.709e-5
0.340, 2.658e-5
0.339, 1.321e-5
0.338, 8.617e-6
0.337, 5.552e-6
0.336, 3.451e-6
0.335, 1.370e-6
0.334, -1.683e-7
0.333, -1.609e-6
0.332, -2.766e-6
0.331, -3.737e-6
0.330, -4.712e-6
0.329, -5.622e-6
0.328, -6.270e-6
0.327, -7.054e-6
0.326, -7.568e-6
0.325, -8.236e-6
0.324, -8.801e-6
0.323, -9.093e-6
0.322, -9.643e-6
0.321, -1.010e-5
0.320, -1.026e-5
0.319, -1.071e-5
0.318, -1.108e-5
0.317, -1.131e-5
0.316, -1.171e-5
0.315, -1.184e-5
0.314, -1.214e-5
0.313, -1.236e-5
0.312, -1.245e-5
0.311, -1.271e-5
0.310, -1.286e-5
0.309, -1.303e-5
0.308, -1.326e-5
0.307, -1.368e-5
0.306, -1.346e-5
0.305, -1.357e-5
0.304, -1.365e-5
0.303, -1.374e-5
0.302, -1.380e-5
0.301, -1.392e-5
0.300, -1.402e-5
0.299, -1.400e-5
0.298, -1.407e-5
0.297, -1.417e-5
0.296, -1.409e-5
0.295, -1.417e-5
0.294, -1.417e-5
0.293, -1.423e-5
0.292, -1.432e-5
0.291, -1.430e-5
0.290, -1.431e-5
0.289, -1.439e-5
0.288, -1.429e-5
0.287, -1.439e-5
0.286, -1.437e-5
0.285, -1.434e-5
0.284, -1.440e-5
0.283, -1.433e-5
0.282, -1.438e-5
0.281, -1.443e-5
0.280, -1.430e-5
0.279, -1.436e-5
0.278, -1.435e-5
0.277, -1.425e-5
0.276, -1.433e-5
0.275, -1.430e-5
0.274, -1.430e-5
0.273, -1.431e-5
0.272, -1.419e-5
0.271, -1.421e-5
0.270, -1.420e-5
0.269, -1.411e-5
0.268, -1.416e-5
0.267, -1.411e-5
0.266, -1.411e-5
0.265, -1.412e-5
0.264, -1.403e-5
0.263, -1.411e-5
0.262, -1.403e-5
0.261, -1.398e-5
0.260, -1.402e-5
0.259, -1.392e-5
0.258, -1.395e-5
0.257, -1.395e-5
0.256, -1.394e-5
0.255, -1.388e-5
0.254, -1.382e-5
0.253, -1.383e-5
0.252, -1.386e-5
0.251, -1.379e-5
0.250, -1.377e-5
0.249, -1.379e-5
0.248, -1.372e-5
0.247, -1.374e-5
0.246, -1.370e-5
0.245, -1.371e-5
0.244, -1.365e-5
0.243, -1.356e-5
0.242, -1.363e-5
0.241, -1.363e-5
0.240, -6.437e-6
0.241, -1.185e-7
0.242, 1.434e-6
0.243, 2.344e-6
0.244, 3.203e-6
0.245, 3.834e-6
0.246, 4.276e-6
0.247, 4.882e-6
0.248, 5.234e-6
0.249, 5.692e-6
0.250, 6.008e-6
0.251, 6.376e-6
0.252, 6.674e-6
0.253, 7.025e-6
0.254, 7.245e-6
0.255, 7.627e-6
0.256, 7.841e-6
0.257, 8.125e-6
0.258, 8.405e-6
0.259, 8.587e-6
0.260, 8.917e-6
0.261, 9.122e-6
0.262, 9.329e-6
0.263, 9.697e-6
0.264, 9.768e-6
0.265, 1.005e-5
0.266, 1.026e-5
0.267, 1.053e-5
0.268, 1.077e-5
0.269, 1.090e-5
0.270, 1.116e-5
0.271, 1.147e-5
0.272, 1.159e-5
0.273, 1.188e-5
0.274, 1.211e-5
0.275, 1.237e-5
0.276, 1.259e-5
0.277, 1.284e-5
0.278, 1.299e-5
0.279, 1.331e-5
0.280, 1.346e-5
0.281, 1.386e-5
0.282, 1.409e-5
0.283, 1.420e-5
0.284, 1.453e-5
0.285, 1.482e-5
0.286, 1.499e-5
0.287, 1.529e-5
0.288, 1.554e-5
0.289, 1.580e-5
0.290, 1.609e-5
0.291, 1.635e-5
0.292, 1.661e-5
0.293, 1.695e-5
0.294, 1.713e-5
0.295, 1.749e-5
0.296, 1.774e-5
0.297, 1.807e-5
0.298, 1.840e-5
0.299, 1.866e-5
0.300, 1.899e-5
0.301, 1.935e-5
0.302, 1.964e-5
0.303, 2.002e-5
0.304, 2.028e-5
0.305, 2.068e-5
0.306, 2.100e-5
0.307, 2.180e-5
0.308, 2.191e-5
0.309, 2.217e-5
0.310, 2.250e-5
0.311, 2.298e-5
0.312, 2.327e-5
0.313, 2.375e-5
0.314, 2.412e-5
0.315, 2.450e-5
0.316, 2.492e-5
0.317, 2.534e-5
0.318, 2.580e-5
0.319, 2.627e-5
0.320, 2.659e-5
0.321, 2.713e-5
0.322, 2.756e-5
0.323, 2.806e-5
0.324, 2.858e-5
0.325, 2.905e-5
0.326, 2.954e-5
0.327, 3.016e-5
0.328, 3.046e-5
0.329, 3.114e-5
0.330, 3.164e-5
0.331, 3.222e-5
0.332, 3.278e-5
0.333, 3.346e-5
0.334, 3.386e-5
0.335, 3.463e-5
0.336, 3.507e-5
0.337, 3.570e-5
0.338, 3.636e-5
0.339, 3.699e-5
0.340, 2.629e-5
0.339, 1.315e-5
0.338, 8.526e-6
0.337, 5.419e-6
0.336, 3.224e-6
0.335, 1.272e-6
0.334, -3.117e-7
0.333, -1.691e-6
0.332, -2.979e-6
0.331, -3.898e-6
0.330, -4.799e-6
0.329, -5.703e-6
0.328, -6.406e-6
0.327, -7.165e-6
0.326, -7.752e-6
0.325, -8.271e-6
0.324, -8.884e-6
0.323, -9.211e-6
0.322, -9.747e-6
0.321, -1.012e-5
0.320, -1.033e-5
0.319, -1.082e-5
0.318, -1.113e-5
0.317, -1.144e-5
0.316, -1.177e-5
0.315, -1.193e-5
0.314, -1.220e-5
0.313, -1.245e-5
0.312, -1.258e-5
0.311, -1.279e-5
0.310, -1.297e-5
0.309, -1.306e-5
0.308, -1.336e-5
0.307, -1.365e-5
0.306, -1.362e-5
0.305, -1.369e-5
0.304, -1.368e-5
0.303, -1.385e-5
0.302, -1.385e-5
0.301, -1.404e-5
0.300, -1.407e-5
0.299, -1.406e-5
0.298, -1.408e-5
0.297, -1.419e-5
0.296, -1.424e-5
0.295, -1.426e-5
0.294, -1.423e-5
0.293, -1.427e-5
0.292, -1.434e-5
0.291, -1.435e-5
0.290, -1.438e-5
0.289, -1.443e-5
0.288, -1.439e-5
0.287, -1.443e-5
0.286, -1.439e-5
0.285, -1.443e-5
0.284, -1.446e-5
0.283, -1.442e-5
0.282, -1.445e-5
0.281, -1.448e-5
0.280, -1.434e-5
0.279, -1.442e-5
0.278, -1.442e-5
0.277, -1.436e-5
0.276, -1.445e-5
0.275, -1.426e-5
0.274, -1.429e-5
0.273, -1.439e-5
0.272, -1.424e-5
0.271, -1.428e-5
0.270, -1.427e-5
0.269, -1.414e-5
0.268, -1.422e-5
0.267, -1.420e-5
0.266, -1.416e-5
0.265, -1.418e-5
0.264, -1.411e-5
0.263, -1.413e-5
0.262, -1.411e-5
0.261, -1.403e-5
0.260, -1.407e-5
0.259, -1.401e-5
0.258, -1.398e-5
0.257, -1.403e-5
0.256, -1.397e-5
0.255, -1.399e-5
0.254, -1.391e-5
0.253, -1.389e-5
0.252, -1.391e-5
0.251, -1.382e-5
0.250, -1.386e-5
0.249, -1.379e-5
0.248, -1.381e-5
0.247, -1.379e-5
0.246, -1.374e-5
0.245, -1.373e-5
0.244, -1.374e-5
0.243, -1.361e-5
0.242, -1.370e-5
0.241, -1.368e-5
0.240, -6.470e-6
0.241, -1.448e-7
0.242, 1.383e-6
0.243, 2.290e-6
0.244, 3.137e-6
0.245, 3.746e-6
0.246, 4.270e-6
0.247, 4.817e-6
0.248, 5.194e-6
0.249, 5.599e-6
0.250, 6.024e-6
0.251, 6.307e-6
0.252, 6.629e-6
0.253, 6.952e-6
0.254, 7.239e-6
0.255, 7.600e-6
0.256, 7.806e-6
0.257, 8.064e-6
0.258, 8.337e-6
0.259, 8.583e-6
0.260, 8.857e-6
0.261, 9.088e-6
0.262, 9.283e-6
0.263, 9.556e-6
0.264, 9.757e-6
0.265, 1.004e-5
0.266, 1.026e-5
0.267, 1.047e-5
0.268, 1.070e-5
0.269, 1.088e-5
0.270, 1.112e-5
0.271, 1.140e-5
0.272, 1.155e-5
0.273, 1.180e-5
0.274, 1.210e-5
0.275, 1.228e-5
0.276, 1.252e-5
0.277, 1.278e-5
0.278, 1.296e-5
0.279, 1.329e-5
0.280, 1.344e-5
0.281, 1.371e-5
0.282, 1.400e-5
0.283, 1.421e-5
0.284, 1.445e-5
0.285, 1.472e-5
0.286, 1.494e-5
0.287, 1.520e-5
0.288, 1.547e-5
0.289, 1.575e-5
0.290, 1.604e-5
0.291, 1.627e-5
0.292, 1.654e-5
0.293, 1.688e-5
0.294, 1.706e-5
0.295, 1.739e-5
0.296, 1.769e-5
0.297, 1.797e-5
0.298, 1.830e-5
0.299, 1.860e-5
0.300, 1.898e-5
0.301, 1.931e-5
0.302, 1.957e-5
0.303, 1.991e-5
0.304, 2.017e-5
0.305, 2.058e-5
0.306, 2.100e-5
0.307, 2.170e-5
0.308, 2.180e-5
0.309, 2.213e-5
0.310, 2.243e-5
0.311, 2.287e-5
0.312, 2.322e-5
0.313, 2.359e-5
0.314, 2.408e-5
0.315, 2.448e-5
0.316, 2.479e-5
0.317, 2.524e-5
0.318, 2.566e-5
0.319, 2.623e-5
0.320, 2.648e-5
0.321, 2.698e-5
0.322, 2.751e-5
0.323, 2.792e-5
0.324, 2.848e-5
0.325, 2.897e-5
0.326, 2.938e-5
0.327, 2.999e-5
0.328, 3.047e-5
0.329, 3.096e-5
0.330, 3.156e-5
0.331, 3.205e-5
0.332, 3.274e-5
0.333, 3.335e-5
0.334, 3.380e-5
0.335, 3.442e-5
0.336, 3.496e-5
0.337, 3.562e-5
0.338, 3.617e-5
0.339, 3.688e-5
0.340, 2.621e-5
0.339, 1.299e-5
0.338, 8.358e-6
0.337, 5.316e-6
0.336, 3.155e-6
0.335, 1.173e-6
0.334, -3.759e-7
0.333, -1.836e-6
0.332, -3.003e-6
0.331, -3.960e-6
0.330, -4.896e-6
0.329, -5.783e-6
0.328, -6.428e-6
0.327, -7.191e-6
0.326, -7.851e-6
0.325, -8.355e-6
0.324, -8.921e-6
0.323, -9.376e-6
0.322, -9.849e-6
0.321, -1.022e-5
0.320, -1.042e-5
0.319, -1.094e-5
0.318, -1.123e-5
0.317, -1.148e-5
0.316, -1.182e-5
0.315, -1.202e-5
0.314, -1.221e-5
0.313, -1.255e-5
0.312, -1.262e-5
0.311, -1.287e-5
0.310, -1.296e-5
0.309, -1.314e-5
0.308, -1.342e-5
0.307, -1.376e-5
0.306, -1.364e-5
0.305, -1.372e-5
0.304, -1.378e-5
0.303, -1.397e-5
0.302, -1.393e-5
0.301, -1.405e-5
0.300, -1.409e-5
0.299, -1.409e-5
0.298, -1.421e-5
0.297, -1.425e-5
0.296, -1.429e-5
0.295, -1.430e-5
0.294, -1.430e-5
0.293, -1.434e-5
0.292, -1.439e-5
0.291, -1.439e-5
0.290, -1.445e-5
0.289, -1.450e-5
0.288, -1.440e-5
0.287, -1.450e-5
0.286, -1.451e-5
0.285, -1.449e-5
0.284, -1.446e-5
0.283, -1.444e-5
0.282, -1.449e-5
0.281, -1.452e-5
0.280, -1.443e-5
0.279, -1.445e-5
0.278, -1.443e-5
0.277, -1.445e-5
0.276, -1.442e-5
0.275, -1.435e-5
0.274, -1.440e-5
0.273, -1.441e-5
0.272, -1.426e-5
0.271, -1.439e-5
0.270, -1.429e-5
0.269, -1.420e-5
0.268, -1.424e-5
0.267, -1.423e-5
0.266, -1.417e-5
0.265, -1.423e-5
0.264, -1.415e-5
0.263, -1.420e-5
0.262, -1.413e-5
0.261, -1.411e-5
0.260, -1.414e-5
0.259, -1.405e-5
0.258, -1.404e-5
0.257, -1.407e-5
0.256, -1.400e-5
0.255, -1.396e-5
0.254, -1.394e-5
0.253, -1.398e-5
0.252, -1.396e-5
0.251, -1.383e-5
0.250, -1.388e-5
0.249, -1.394e-5
0.248, -1.382e-5
0.247, -1.384e-5
0.246, -1.378e-5
0.245, -1.377e-5
0.244, -1.382e-5
0.243, -1.360e-5
0.242, -1.374e-5
0.241, -1.377e-5
0.240, -6.550e-6
0.241, -1.948e-7
0.242, 1.365e-6
0.243, 2.268e-6
0.244, 3.114e-6
0.245, 3.722e-6
0.246, 4.208e-6
0.247, 4.800e-6
0.248, 5.147e-6
0.249, 5.598e-6
0.250, 5.982e-6
0.251, 6.285e-6
0.252, 6.597e-6
0.253, 6.908e-6
0.254, 7.179e-6
0.255, 7.538e-6
0.256, 7.804e-6
0.257, 8.039e-6
0.258, 8.291e-6
0.259, 8.534e-6
0.260, 8.811e-6
0.261, 9.040e-6
0.262, 9.212e-6
0.263, 9.579e-6
0.264, 9.688e-6
0.265, 9.996e-6
0.266, 1.020e-5
0.267, 1.044e-5
0.268, 1.065e-5
0.269, 1.077e-5
0.270, 1.108e-5
0.271, 1.138e-5
0.272, 1.147e-5
0.273, 1.182e-5
0.274, 1.200e-5
0.275, 1.223e-5
0.276, 1.252e-5
0.277, 1.270e-5
0.278, 1.287e-5
0.279, 1.323e-5
0.280, 1.340e-5
0.281, 1.369e-5
0.282, 1.395e-5
0.283, 1.413e-5
0.284, 1.442e-5
0.285, 1.465e-5
0.286, 1.484e-5
0.287, 1.518e-5
0.288, 1.541e-5
0.289, 1.568e-5
0.290, 1.596e-5
0.291, 1.622e-5
0.292, 1.646e-5
0.293, 1.679e-5
0.294, 1.697e-5
0.295, 1.741e-5
0.296, 1.761e-5
0.297, 1.789e-5
0.298, 1.823e-5
0.299, 1.859e-5
0.300, 1.886e-5
0.301, 1.925e-5
0.302, 1.951e-5
0.303, 1.992e-5
0.304, 2.015e-5
0.305, 2.046e-5
0.306, 2.095e-5
0.307, 2.163e-5
0.308, 2.174e-5
0.309, 2.209e-5
0.310, 2.232e-5
0.311, 2.278e-5
0.312, 2.315e-5
0.313, 2.354e-5
0.314, 2.395e-5
0.315, 2.440e-5
0.316, 2.475e-5
0.317, 2.519e-5
0.318, 2.560e-5
0.319, 2.612e-5
0.320, 2.638e-5
0.321, 2.693e-5
0.322, 2.743e-5
0.323, 2.788e-5
0.324, 2.835e-5
0.325, 2.887e-5
0.326, 2.932e-5
0.327, 2.995e-5
0.328, 3.042e-5
0.329, 3.090e-5
0.330, 3.144e-5
0.331, 3.200e-5
0.332, 3.256e-5
0.333, 3.322e-5
0.334, 3.368e-5
0.335, 3.431e-5
0.336, 3.484e-5
0.337, 3.551e-5
0.338, 3.612e-5
0.339, 3.676e-5
0.340, 2.610e-5
0.339, 1.297e-5
0.338, 8.344e-6
0.337, 5.261e-6
0.336, 3.028e-6
0.335, 1.045e-6
0.334, -4.526e-7
0.333, -1.949e-6
0.332, -3.112e-6
0.331, -4.005e-6
0.330, -4.974e-6
0.329, -5.860e-6
0.328, -6.546e-6
0.327, -7.321e-6
0.326, -7.903e-6
0.325, -8.421e-6
0.324, -9.007e-6
0.323, -9.355e-6
0.322, -9.914e-6
0.321, -1.035e-5
0.320, -1.053e-5
0.319, -1.095e-5
0.318, -1.127e-5
0.317, -1.154e-5
0.316, -1.187e-5
0.315, -1.209e-5
0.314, -1.233e-5
0.313, -1.257e-5
0.312, -1.262e-5
0.311, -1.293e-5
0.310, -1.303e-5
0.309, -1.317e-5
0.308, -1.347e-5
0.307, -1.382e-5
0.306, -1.367e-5
0.305, -1.382e-5
0.304, -1.378e-5
0.303, -1.392e-5
0.302, -1.403e-5
0.301, -1.406e-5
0.300, -1.418e-5
0.299, -1.416e-5
0.298, -1.420e-5
0.297, -1.435e-5
0.296, -1.430e-5
0.295, -1.435e-5
0.294, -1.434e-5
0.293, -1.439e-5
0.292, -1.448e-5
0.291, -1.441e-5
0.290, -1.446e-5
0.289, -1.449e-5
0.288, -1.451e-5
0.287, -1.451e-5
0.286, -1.454e-5
0.285, -1.451e-5
0.284, -1.451e-5
0.283, -1.449e-5
0.282, -1.459e-5
0.281, -1.457e-5
0.280, -1.444e-5
0.279, -1.452e-5
0.278, -1.445e-5
0.277, -1.447e-5
0.276, -1.446e-5
0.275, -1.444e-5
0.274, -1.438e-5
0.273, -1.447e-5
0.272, -1.433e-5
0.271, -1.438e-5
0.270, -1.437e-5
0.269, -1.420e-5
0.268, -1.430e-5
0.267, -1.423e-5
0.266, -1.421e-5
0.265, -1.427e-5
0.264, -1.423e-5
0.263, -1.416e-5
0.262, -1.424e-5
0.261, -1.414e-5
0.260, -1.413e-5
0.259, -1.410e-5
0.258, -1.406e-5
0.257, -1.407e-5
0.256, -1.407e-5
0.255, -1.403e-5
0.254, -1.406e-5
0.253, -1.395e-5
0.252, -1.397e-5
0.251, -1.389e-5
0.250, -1.390e-5
0.249, -1.393e-5
0.248, -1.384e-5
0.247, -1.387e-5
0.246, -1.382e-5
0.245, -1.381e-5
0.244, -1.383e-5
0.243, -1.370e-5
0.242, -1.376e-5
0.241, -1.381e-5
