Sept. 21, 2026   17:23:43
Cyclic Voltammetry
File: d:\desktop\sample\ss310 1 cm2\ss310_sheet cv 100 mv.bin
Data Source:  Experiment
Instrument Model:  CHI660D
Header: 
Note: 

Init E (V) = 0.24
High E (V) = 0.34
Low E (V) = 0.24
Init P/N = P
Scan Rate (V/s) = 0.1
Segment = 20
Sample Interval (V) = 0.001
Quiet Time (sec) = 2
Sensitivity (A/V) = 1e-5

Results:

Channel 1:
Segment 1:

Segment 2:

Segment 3:

Segment 4:

Segment 5:

Segment 6:

Segment 7:

Segment 8:

Segment 9:

Segment 10:

Segment 11:

Segment 12:

Segment 13:

Segment 14:

Segment 15:

Segment 16:

Segment 17:

Segment 18:

Segment 19:

Segment 20:

Potential/V, Current/A

0.240, 3.287e-6
0.241, 5.841e-6
0.242, 6.693e-6
0.243, 7.127e-6
0.244, 7.434e-6
0.245, 7.697e-6
0.246, 7.950e-6
0.247, 8.141e-6
0.248, 8.337e-6
0.249, 8.528e-6
0.250, 8.706e-6
0.251, 8.863e-6
0.252, 9.048e-6
0.253, 9.179e-6
0.254, 9.350e-6
0.255, 9.494e-6
0.256, 9.668e-6
0.257, 9.834e-6
0.258, 9.938e-6
0.259, 1.010e-5
0.260, 1.029e-5
0.261, 1.040e-5
0.262, 1.058e-5
0.263, 1.073e-5
0.264, 1.090e-5
0.265, 1.108e-5
0.266, 1.120e-5
0.267, 1.136e-5
0.268, 1.155e-5
0.269, 1.164e-5
0.270, 1.188e-5
0.271, 1.203e-5
0.272, 1.221e-5
0.273, 1.239e-5
0.274, 1.255e-5
0.275, 1.271e-5
0.276, 1.291e-5
0.277, 1.307e-5
0.278, 1.327e-5
0.279, 1.346e-5
0.280, 1.365e-5
0.281, 1.387e-5
0.282, 1.409e-5
0.283, 1.427e-5
0.284, 1.445e-5
0.285, 1.466e-5
0.286, 1.487e-5
0.287, 1.509e-5
0.288, 1.530e-5
0.289, 1.555e-5
0.290, 1.574e-5
0.291, 1.598e-5
0.292, 1.623e-5
0.293, 1.644e-5
0.294, 1.665e-5
0.295, 1.687e-5
0.296, 1.716e-5
0.297, 1.741e-5
0.298, 1.763e-5
0.299, 1.791e-5
0.300, 1.824e-5
0.301, 1.845e-5
0.302, 1.874e-5
0.303, 1.901e-5
0.304, 1.927e-5
0.305, 1.961e-5
0.306, 1.984e-5
0.307, 2.032e-5
0.308, 2.062e-5
0.309, 2.081e-5
0.310, 2.111e-5
0.311, 2.137e-5
0.312, 2.174e-5
0.313, 2.206e-5
0.314, 2.236e-5
0.315, 2.271e-5
0.316, 2.303e-5
0.317, 2.338e-5
0.318, 2.375e-5
0.319, 2.413e-5
0.320, 2.442e-5
0.321, 2.478e-5
0.322, 2.518e-5
0.323, 2.555e-5
0.324, 2.598e-5
0.325, 2.630e-5
0.326, 2.671e-5
0.327, 2.714e-5
0.328, 2.752e-5
0.329, 2.795e-5
0.330, 2.834e-5
0.331, 2.878e-5
0.332, 2.923e-5
0.333, 2.972e-5
0.334, 3.016e-5
0.335, 3.059e-5
0.336, 3.099e-5
0.337, 3.150e-5
0.338, 3.192e-5
0.339, 3.242e-5
0.340, 2.876e-5
0.339, 1.831e-5
0.338, 1.334e-5
0.337, 1.046e-5
0.336, 8.447e-6
0.335, 6.876e-6
0.334, 5.474e-6
0.333, 4.229e-6
0.332, 3.199e-6
0.331, 2.349e-6
0.330, 1.536e-6
0.329, 7.832e-7
0.328, 1.178e-7
0.327, -4.996e-7
0.326, -1.017e-6
0.325, -1.524e-6
0.324, -2.044e-6
0.323, -2.441e-6
0.322, -2.827e-6
0.321, -3.227e-6
0.320, -3.519e-6
0.319, -3.895e-6
0.318, -4.153e-6
0.317, -4.461e-6
0.316, -4.753e-6
0.315, -4.954e-6
0.314, -5.228e-6
0.313, -5.429e-6
0.312, -5.609e-6
0.311, -5.799e-6
0.310, -5.964e-6
0.309, -6.159e-6
0.308, -6.287e-6
0.307, -6.696e-6
0.306, -6.643e-6
0.305, -6.750e-6
0.304, -6.836e-6
0.303, -6.936e-6
0.302, -7.011e-6
0.301, -7.121e-6
0.300, -7.193e-6
0.299, -7.279e-6
0.298, -7.342e-6
0.297, -7.414e-6
0.296, -7.464e-6
0.295, -7.547e-6
0.294, -7.545e-6
0.293, -7.605e-6
0.292, -7.695e-6
0.291, -7.691e-6
0.290, -7.724e-6
0.289, -7.836e-6
0.288, -7.839e-6
0.287, -7.867e-6
0.286, -7.892e-6
0.285, -7.909e-6
0.284, -7.974e-6
0.283, -7.930e-6
0.282, -7.999e-6
0.281, -8.049e-6
0.280, -8.029e-6
0.279, -8.031e-6
0.278, -8.032e-6
0.277, -8.024e-6
0.276, -8.068e-6
0.275, -8.044e-6
0.274, -8.081e-6
0.273, -8.071e-6
0.272, -8.066e-6
0.271, -8.078e-6
0.270, -8.071e-6
0.269, -8.044e-6
0.268, -8.054e-6
0.267, -8.067e-6
0.266, -8.065e-6
0.265, -8.066e-6
0.264, -8.067e-6
0.263, -8.067e-6
0.262, -8.049e-6
0.261, -8.070e-6
0.260, -8.040e-6
0.259, -8.040e-6
0.258, -8.032e-6
0.257, -8.041e-6
0.256, -8.037e-6
0.255, -8.032e-6
0.254, -8.011e-6
0.253, -8.015e-6
0.252, -7.994e-6
0.251, -7.998e-6
0.250, -7.974e-6
0.249, -7.995e-6
0.248, -7.963e-6
0.247, -7.981e-6
0.246, -7.942e-6
0.245, -7.963e-6
0.244, -7.968e-6
0.243, -7.873e-6
0.242, -7.921e-6
0.241, -7.933e-6
0.240, -5.344e-6
0.241, -6.817e-8
0.242, 1.714e-6
0.243, 2.570e-6
0.244, 3.175e-6
0.245, 3.644e-6
0.246, 4.086e-6
0.247, 4.405e-6
0.248, 4.705e-6
0.249, 5.034e-6
0.250, 5.320e-6
0.251, 5.555e-6
0.252, 5.830e-6
0.253, 6.019e-6
0.254, 6.254e-6
0.255, 6.431e-6
0.256, 6.674e-6
0.257, 6.897e-6
0.258, 7.058e-6
0.259, 7.251e-6
0.260, 7.463e-6
0.261, 7.601e-6
0.262, 7.819e-6
0.263, 7.985e-6
0.264, 8.162e-6
0.265, 8.372e-6
0.266, 8.516e-6
0.267, 8.706e-6
0.268, 8.876e-6
0.269, 9.018e-6
0.270, 9.222e-6
0.271, 9.398e-6
0.272, 9.582e-6
0.273, 9.775e-6
0.274, 9.937e-6
0.275, 1.012e-5
0.276, 1.034e-5
0.277, 1.048e-5
0.278, 1.069e-5
0.279, 1.089e-5
0.280, 1.108e-5
0.281, 1.129e-5
0.282, 1.152e-5
0.283, 1.167e-5
0.284, 1.190e-5
0.285, 1.207e-5
0.286, 1.228e-5
0.287, 1.249e-5
0.288, 1.270e-5
0.289, 1.293e-5
0.290, 1.312e-5
0.291, 1.335e-5
0.292, 1.359e-5
0.293, 1.379e-5
0.294, 1.402e-5
0.295, 1.425e-5
0.296, 1.451e-5
0.297, 1.478e-5
0.298, 1.500e-5
0.299, 1.525e-5
0.300, 1.554e-5
0.301, 1.578e-5
0.302, 1.606e-5
0.303, 1.634e-5
0.304, 1.658e-5
0.305, 1.687e-5
0.306, 1.714e-5
0.307, 1.762e-5
0.308, 1.793e-5
0.309, 1.811e-5
0.310, 1.841e-5
0.311, 1.867e-5
0.312, 1.897e-5
0.313, 1.929e-5
0.314, 1.964e-5
0.315, 1.998e-5
0.316, 2.029e-5
0.317, 2.063e-5
0.318, 2.095e-5
0.319, 2.131e-5
0.320, 2.161e-5
0.321, 2.199e-5
0.322, 2.240e-5
0.323, 2.275e-5
0.324, 2.315e-5
0.325, 2.352e-5
0.326, 2.393e-5
0.327, 2.435e-5
0.328, 2.475e-5
0.329, 2.518e-5
0.330, 2.556e-5
0.331, 2.595e-5
0.332, 2.642e-5
0.333, 2.690e-5
0.334, 2.732e-5
0.335, 2.776e-5
0.336, 2.825e-5
0.337, 2.878e-5
0.338, 2.918e-5
0.339, 2.966e-5
0.340, 2.599e-5
0.339, 1.560e-5
0.338, 1.070e-5
0.337, 7.923e-6
0.336, 5.989e-6
0.335, 4.411e-6
0.334, 3.101e-6
0.333, 1.982e-6
0.332, 9.799e-7
0.331, 2.178e-7
0.330, -5.545e-7
0.329, -1.244e-6
0.328, -1.866e-6
0.327, -2.442e-6
0.326, -2.941e-6
0.325, -3.423e-6
0.324, -3.859e-6
0.323, -4.188e-6
0.322, -4.585e-6
0.321, -4.946e-6
0.320, -5.143e-6
0.319, -5.481e-6
0.318, -5.746e-6
0.317, -6.027e-6
0.316, -6.244e-6
0.315, -6.454e-6
0.314, -6.669e-6
0.313, -6.852e-6
0.312, -7.014e-6
0.311, -7.185e-6
0.310, -7.271e-6
0.309, -7.460e-6
0.308, -7.567e-6
0.307, -7.946e-6
0.306, -7.876e-6
0.305, -7.945e-6
0.304, -8.016e-6
0.303, -8.079e-6
0.302, -8.203e-6
0.301, -8.257e-6
0.300, -8.308e-6
0.299, -8.349e-6
0.298, -8.416e-6
0.297, -8.484e-6
0.296, -8.535e-6
0.295, -8.566e-6
0.294, -8.572e-6
0.293, -8.613e-6
0.292, -8.664e-6
0.291, -8.656e-6
0.290, -8.723e-6
0.289, -8.763e-6
0.288, -8.745e-6
0.287, -8.803e-6
0.286, -8.793e-6
0.285, -8.783e-6
0.284, -8.833e-6
0.283, -8.801e-6
0.282, -8.873e-6
0.281, -8.861e-6
0.280, -8.844e-6
0.279, -8.868e-6
0.278, -8.820e-6
0.277, -8.832e-6
0.276, -8.838e-6
0.275, -8.807e-6
0.274, -8.849e-6
0.273, -8.833e-6
0.272, -8.798e-6
0.271, -8.818e-6
0.270, -8.772e-6
0.269, -8.761e-6
0.268, -8.760e-6
0.267, -8.765e-6
0.266, -8.755e-6
0.265, -8.767e-6
0.264, -8.744e-6
0.263, -8.738e-6
0.262, -8.734e-6
0.261, -8.724e-6
0.260, -8.704e-6
0.259, -8.707e-6
0.258, -8.702e-6
0.257, -8.697e-6
0.256, -8.661e-6
0.255, -8.649e-6
0.254, -8.649e-6
0.253, -8.611e-6
0.252, -8.613e-6
0.251, -8.587e-6
0.250, -8.579e-6
0.249, -8.606e-6
0.248, -8.537e-6
0.247, -8.565e-6
0.246, -8.544e-6
0.245, -8.527e-6
0.244, -8.562e-6
0.243, -8.447e-6
0.242, -8.497e-6
0.241, -8.507e-6
0.240, -5.914e-6
0.241, -6.018e-7
0.242, 1.208e-6
0.243, 2.052e-6
0.244, 2.694e-6
0.245, 3.149e-6
0.246, 3.573e-6
0.247, 3.938e-6
0.248, 4.241e-6
0.249, 4.562e-6
0.250, 4.825e-6
0.251, 5.079e-6
0.252, 5.327e-6
0.253, 5.539e-6
0.254, 5.767e-6
0.255, 5.989e-6
0.256, 6.222e-6
0.257, 6.417e-6
0.258, 6.579e-6
0.259, 6.749e-6
0.260, 6.948e-6
0.261, 7.131e-6
0.262, 7.345e-6
0.263, 7.508e-6
0.264, 7.673e-6
0.265, 7.872e-6
0.266, 8.033e-6
0.267, 8.223e-6
0.268, 8.401e-6
0.269, 8.492e-6
0.270, 8.720e-6
0.271, 8.897e-6
0.272, 9.073e-6
0.273, 9.257e-6
0.274, 9.419e-6
0.275, 9.640e-6
0.276, 9.810e-6
0.277, 9.993e-6
0.278, 1.017e-5
0.279, 1.036e-5
0.280, 1.056e-5
0.281, 1.073e-5
0.282, 1.096e-5
0.283, 1.111e-5
0.284, 1.135e-5
0.285, 1.150e-5
0.286, 1.175e-5
0.287, 1.195e-5
0.288, 1.214e-5
0.289, 1.235e-5
0.290, 1.256e-5
0.291, 1.278e-5
0.292, 1.302e-5
0.293, 1.322e-5
0.294, 1.344e-5
0.295, 1.363e-5
0.296, 1.386e-5
0.297, 1.417e-5
0.298, 1.437e-5
0.299, 1.462e-5
0.300, 1.491e-5
0.301, 1.513e-5
0.302, 1.543e-5
0.303, 1.567e-5
0.304, 1.591e-5
0.305, 1.622e-5
0.306, 1.648e-5
0.307, 1.694e-5
0.308, 1.722e-5
0.309, 1.740e-5
0.310, 1.769e-5
0.311, 1.796e-5
0.312, 1.829e-5
0.313, 1.861e-5
0.314, 1.892e-5
0.315, 1.925e-5
0.316, 1.956e-5
0.317, 1.988e-5
0.318, 2.022e-5
0.319, 2.057e-5
0.320, 2.089e-5
0.321, 2.124e-5
0.322, 2.160e-5
0.323, 2.199e-5
0.324, 2.238e-5
0.325, 2.274e-5
0.326, 2.314e-5
0.327, 2.353e-5
0.328, 2.392e-5
0.329, 2.434e-5
0.330, 2.472e-5
0.331, 2.515e-5
0.332, 2.563e-5
0.333, 2.608e-5
0.334, 2.655e-5
0.335, 2.695e-5
0.336, 2.738e-5
0.337, 2.786e-5
0.338, 2.831e-5
0.339, 2.886e-5
0.340, 2.513e-5
0.339, 1.479e-5
0.338, 9.885e-6
0.337, 7.073e-6
0.336, 5.212e-6
0.335, 3.652e-6
0.334, 2.399e-6
0.333, 1.264e-6
0.332, 2.689e-7
0.331, -4.783e-7
0.330, -1.220e-6
0.329, -1.894e-6
0.328, -2.522e-6
0.327, -3.117e-6
0.326, -3.569e-6
0.325, -3.997e-6
0.324, -4.473e-6
0.323, -4.801e-6
0.322, -5.166e-6
0.321, -5.488e-6
0.320, -5.728e-6
0.319, -6.042e-6
0.318, -6.298e-6
0.317, -6.536e-6
0.316, -6.774e-6
0.315, -6.973e-6
0.314, -7.176e-6
0.313, -7.336e-6
0.312, -7.482e-6
0.311, -7.665e-6
0.310, -7.744e-6
0.309, -7.913e-6
0.308, -8.062e-6
0.307, -8.416e-6
0.306, -8.335e-6
0.305, -8.379e-6
0.304, -8.455e-6
0.303, -8.520e-6
0.302, -8.593e-6
0.301, -8.627e-6
0.300, -8.705e-6
0.299, -8.795e-6
0.298, -8.777e-6
0.297, -8.878e-6
0.296, -8.904e-6
0.295, -8.937e-6
0.294, -8.921e-6
0.293, -8.996e-6
0.292, -9.051e-6
0.291, -9.028e-6
0.290, -9.086e-6
0.289, -9.116e-6
0.288, -9.128e-6
0.287, -9.129e-6
0.286, -9.127e-6
0.285, -9.121e-6
0.284, -9.169e-6
0.283, -9.123e-6
0.282, -9.189e-6
0.281, -9.198e-6
0.280, -9.159e-6
0.279, -9.194e-6
0.278, -9.156e-6
0.277, -9.166e-6
0.276, -9.152e-6
0.275, -9.119e-6
0.274, -9.146e-6
0.273, -9.129e-6
0.272, -9.096e-6
0.271, -9.120e-6
0.270, -9.117e-6
0.269, -9.074e-6
0.268, -9.054e-6
0.267, -9.066e-6
0.266, -9.024e-6
0.265, -9.058e-6
0.264, -9.037e-6
0.263, -9.025e-6
0.262, -9.013e-6
0.261, -8.984e-6
0.260, -9.003e-6
0.259, -8.974e-6
0.258, -8.929e-6
0.257, -8.946e-6
0.256, -8.956e-6
0.255, -8.928e-6
0.254, -8.897e-6
0.253, -8.884e-6
0.252, -8.875e-6
0.251, -8.851e-6
0.250, -8.842e-6
0.249, -8.846e-6
0.248, -8.819e-6
0.247, -8.828e-6
0.246, -8.769e-6
0.245, -8.786e-6
0.244, -8.792e-6
0.243, -8.724e-6
0.242, -8.748e-6
0.241, -8.745e-6
0.240, -6.139e-6
0.241, -8.288e-7
0.242, 1.006e-6
0.243, 1.842e-6
0.244, 2.467e-6
0.245, 2.945e-6
0.246, 3.352e-6
0.247, 3.725e-6
0.248, 4.027e-6
0.249, 4.373e-6
0.250, 4.618e-6
0.251, 4.880e-6
0.252, 5.144e-6
0.253, 5.302e-6
0.254, 5.552e-6
0.255, 5.795e-6
0.256, 5.984e-6
0.257, 6.188e-6
0.258, 6.371e-6
0.259, 6.549e-6
0.260, 6.753e-6
0.261, 6.930e-6
0.262, 7.083e-6
0.263, 7.296e-6
0.264, 7.440e-6
0.265, 7.669e-6
0.266, 7.816e-6
0.267, 7.990e-6
0.268, 8.164e-6
0.269, 8.282e-6
0.270, 8.492e-6
0.271, 8.657e-6
0.272, 8.851e-6
0.273, 9.035e-6
0.274, 9.187e-6
0.275, 9.386e-6
0.276, 9.571e-6
0.277, 9.758e-6
0.278, 9.927e-6
0.279, 1.011e-5
0.280, 1.029e-5
0.281, 1.050e-5
0.282, 1.070e-5
0.283, 1.086e-5
0.284, 1.108e-5
0.285, 1.124e-5
0.286, 1.145e-5
0.287, 1.165e-5
0.288, 1.186e-5
0.289, 1.211e-5
0.290, 1.228e-5
0.291, 1.250e-5
0.292, 1.271e-5
0.293, 1.291e-5
0.294, 1.314e-5
0.295, 1.334e-5
0.296, 1.358e-5
0.297, 1.388e-5
0.298, 1.408e-5
0.299, 1.433e-5
0.300, 1.458e-5
0.301, 1.483e-5
0.302, 1.510e-5
0.303, 1.534e-5
0.304, 1.562e-5
0.305, 1.590e-5
0.306, 1.614e-5
0.307, 1.658e-5
0.308, 1.690e-5
0.309, 1.709e-5
0.310, 1.736e-5
0.311, 1.760e-5
0.312, 1.794e-5
0.313, 1.826e-5
0.314, 1.855e-5
0.315, 1.889e-5
0.316, 1.918e-5
0.317, 1.950e-5
0.318, 1.984e-5
0.319, 2.020e-5
0.320, 2.048e-5
0.321, 2.085e-5
0.322, 2.124e-5
0.323, 2.159e-5
0.324, 2.199e-5
0.325, 2.233e-5
0.326, 2.272e-5
0.327, 2.317e-5
0.328, 2.352e-5
0.329, 2.397e-5
0.330, 2.432e-5
0.331, 2.474e-5
0.332, 2.519e-5
0.333, 2.570e-5
0.334, 2.612e-5
0.335, 2.653e-5
0.336, 2.694e-5
0.337, 2.745e-5
0.338, 2.792e-5
0.339, 2.837e-5
0.340, 2.470e-5
0.339, 1.438e-5
0.338, 9.486e-6
0.337, 6.720e-6
0.336, 4.824e-6
0.335, 3.299e-6
0.334, 1.996e-6
0.333, 8.838e-7
0.332, -8.843e-8
0.331, -8.490e-7
0.330, -1.602e-6
0.329, -2.272e-6
0.328, -2.847e-6
0.327, -3.404e-6
0.326, -3.858e-6
0.325, -4.344e-6
0.324, -4.769e-6
0.323, -5.072e-6
0.322, -5.486e-6
0.321, -5.783e-6
0.320, -6.033e-6
0.319, -6.336e-6
0.318, -6.559e-6
0.317, -6.839e-6
0.316, -7.025e-6
0.315, -7.228e-6
0.314, -7.470e-6
0.313, -7.596e-6
0.312, -7.764e-6
0.311, -7.905e-6
0.310, -8.016e-6
0.309, -8.142e-6
0.308, -8.262e-6
0.307, -8.650e-6
0.306, -8.605e-6
0.305, -8.645e-6
0.304, -8.699e-6
0.303, -8.760e-6
0.302, -8.802e-6
0.301, -8.853e-6
0.300, -8.954e-6
0.299, -8.994e-6
0.298, -9.016e-6
0.297, -9.096e-6
0.296, -9.103e-6
0.295, -9.137e-6
0.294, -9.137e-6
0.293, -9.176e-6
0.292, -9.242e-6
0.291, -9.240e-6
0.290, -9.257e-6
0.289, -9.283e-6
0.288, -9.290e-6
0.287, -9.336e-6
0.286, -9.305e-6
0.285, -9.311e-6
0.284, -9.325e-6
0.283, -9.332e-6
0.282, -9.369e-6
0.281, -9.386e-6
0.280, -9.328e-6
0.279, -9.349e-6
0.278, -9.333e-6
0.277, -9.321e-6
0.276, -9.309e-6
0.275, -9.292e-6
0.274, -9.294e-6
0.273, -9.308e-6
0.272, -9.284e-6
0.271, -9.292e-6
0.270, -9.248e-6
0.269, -9.224e-6
0.268, -9.221e-6
0.267, -9.226e-6
0.266, -9.188e-6
0.265, -9.210e-6
0.264, -9.180e-6
0.263, -9.165e-6
0.262, -9.143e-6
0.261, -9.149e-6
0.260, -9.149e-6
0.259, -9.116e-6
0.258, -9.094e-6
0.257, -9.097e-6
0.256, -9.086e-6
0.255, -9.079e-6
0.254, -9.049e-6
0.253, -9.032e-6
0.252, -9.018e-6
0.251, -9.006e-6
0.250, -9.010e-6
0.249, -9.009e-6
0.248, -8.941e-6
0.247, -8.976e-6
0.246, -8.921e-6
0.245, -8.912e-6
0.244, -8.937e-6
0.243, -8.856e-6
0.242, -8.884e-6
0.241, -8.884e-6
0.240, -6.297e-6
0.241, -9.639e-7
0.242, 8.605e-7
0.243, 1.713e-6
0.244, 2.357e-6
0.245, 2.805e-6
0.246, 3.219e-6
0.247, 3.612e-6
0.248, 3.931e-6
0.249, 4.211e-6
0.250, 4.493e-6
0.251, 4.740e-6
0.252, 5.015e-6
0.253, 5.196e-6
0.254, 5.418e-6
0.255, 5.662e-6
0.256, 5.862e-6
0.257, 6.079e-6
0.258, 6.248e-6
0.259, 6.426e-6
0.260, 6.628e-6
0.261, 6.801e-6
0.262, 6.985e-6
0.263, 7.154e-6
0.264, 7.338e-6
0.265, 7.508e-6
0.266, 7.646e-6
0.267, 7.858e-6
0.268, 8.027e-6
0.269, 8.138e-6
0.270, 8.376e-6
0.271, 8.521e-6
0.272, 8.704e-6
0.273, 8.864e-6
0.274, 9.072e-6
0.275, 9.259e-6
0.276, 9.413e-6
0.277, 9.590e-6
0.278, 9.773e-6
0.279, 9.962e-6
0.280, 1.014e-5
0.281, 1.036e-5
0.282, 1.057e-5
0.283, 1.070e-5
0.284, 1.095e-5
0.285, 1.109e-5
0.286, 1.128e-5
0.287, 1.149e-5
0.288, 1.170e-5
0.289, 1.192e-5
0.290, 1.213e-5
0.291, 1.232e-5
0.292, 1.253e-5
0.293, 1.277e-5
0.294, 1.298e-5
0.295, 1.320e-5
0.296, 1.339e-5
0.297, 1.370e-5
0.298, 1.388e-5
0.299, 1.414e-5
0.300, 1.438e-5
0.301, 1.466e-5
0.302, 1.492e-5
0.303, 1.514e-5
0.304, 1.538e-5
0.305, 1.570e-5
0.306, 1.592e-5
0.307, 1.638e-5
0.308, 1.669e-5
0.309, 1.685e-5
0.310, 1.712e-5
0.311, 1.740e-5
0.312, 1.774e-5
0.313, 1.802e-5
0.314, 1.835e-5
0.315, 1.864e-5
0.316, 1.897e-5
0.317, 1.930e-5
0.318, 1.961e-5
0.319, 1.999e-5
0.320, 2.023e-5
0.321, 2.064e-5
0.322, 2.099e-5
0.323, 2.133e-5
0.324, 2.176e-5
0.325, 2.211e-5
0.326, 2.248e-5
0.327, 2.292e-5
0.328, 2.326e-5
0.329, 2.373e-5
0.330, 2.405e-5
0.331, 2.447e-5
0.332, 2.495e-5
0.333, 2.542e-5
0.334, 2.582e-5
0.335, 2.629e-5
0.336, 2.670e-5
0.337, 2.718e-5
0.338, 2.763e-5
0.339, 2.813e-5
0.340, 2.443e-5
0.339, 1.405e-5
0.338, 9.215e-6
0.337, 6.459e-6
0.336, 4.572e-6
0.335, 3.028e-6
0.334, 1.756e-6
0.333, 6.542e-7
0.332, -2.718e-7
0.331, -1.051e-6
0.330, -1.789e-6
0.329, -2.451e-6
0.328, -3.039e-6
0.327, -3.622e-6
0.326, -4.069e-6
0.325, -4.515e-6
0.324, -4.954e-6
0.323, -5.302e-6
0.322, -5.648e-6
0.321, -5.957e-6
0.320, -6.178e-6
0.319, -6.518e-6
0.318, -6.711e-6
0.317, -6.989e-6
0.316, -7.248e-6
0.315, -7.401e-6
0.314, -7.589e-6
0.313, -7.783e-6
0.312, -7.919e-6
0.311, -8.055e-6
0.310, -8.189e-6
0.309, -8.295e-6
0.308, -8.449e-6
0.307, -8.780e-6
0.306, -8.725e-6
0.305, -8.778e-6
0.304, -8.801e-6
0.303, -8.905e-6
0.302, -8.934e-6
0.301, -9.014e-6
0.300, -9.099e-6
0.299, -9.114e-6
0.298, -9.137e-6
0.297, -9.223e-6
0.296, -9.240e-6
0.295, -9.247e-6
0.294, -9.250e-6
0.293, -9.293e-6
0.292, -9.361e-6
0.291, -9.344e-6
0.290, -9.367e-6
0.289, -9.403e-6
0.288, -9.399e-6
0.287, -9.446e-6
0.286, -9.415e-6
0.285, -9.440e-6
0.284, -9.452e-6
0.283, -9.440e-6
0.282, -9.474e-6
0.281, -9.500e-6
0.280, -9.437e-6
0.279, -9.454e-6
0.278, -9.428e-6
0.277, -9.436e-6
0.276, -9.442e-6
0.275, -9.406e-6
0.274, -9.405e-6
0.273, -9.389e-6
0.272, -9.364e-6
0.271, -9.376e-6
0.270, -9.343e-6
0.269, -9.322e-6
0.268, -9.324e-6
0.267, -9.332e-6
0.266, -9.331e-6
0.265, -9.305e-6
0.264, -9.276e-6
0.263, -9.311e-6
0.262, -9.249e-6
0.261, -9.224e-6
0.260, -9.245e-6
0.259, -9.212e-6
0.258, -9.172e-6
0.257, -9.205e-6
0.256, -9.187e-6
0.255, -9.172e-6
0.254, -9.147e-6
0.253, -9.105e-6
0.252, -9.133e-6
0.251, -9.098e-6
0.250, -9.068e-6
0.249, -9.096e-6
0.248, -9.036e-6
0.247, -9.077e-6
0.246, -9.002e-6
0.245, -9.032e-6
0.244, -9.035e-6
0.243, -8.943e-6
0.242, -8.993e-6
0.241, -8.990e-6
0.240, -6.382e-6
0.241, -1.054e-6
0.242, 8.005e-7
0.243, 1.643e-6
0.244, 2.270e-6
0.245, 2.768e-6
0.246, 3.150e-6
0.247, 3.533e-6
0.248, 3.838e-6
0.249, 4.157e-6
0.250, 4.416e-6
0.251, 4.652e-6
0.252, 4.914e-6
0.253, 5.135e-6
0.254, 5.360e-6
0.255, 5.565e-6
0.256, 5.780e-6
0.257, 5.989e-6
0.258, 6.146e-6
0.259, 6.339e-6
0.260, 6.535e-6
0.261, 6.718e-6
0.262, 6.909e-6
0.263, 7.049e-6
0.264, 7.239e-6
0.265, 7.440e-6
0.266, 7.580e-6
0.267, 7.765e-6
0.268, 7.935e-6
0.269, 8.057e-6
0.270, 8.268e-6
0.271, 8.446e-6
0.272, 8.607e-6
0.273, 8.782e-6
0.274, 8.948e-6
0.275, 9.144e-6
0.276, 9.348e-6
0.277, 9.496e-6
0.278, 9.669e-6
0.279, 9.859e-6
0.280, 1.006e-5
0.281, 1.024e-5
0.282, 1.046e-5
0.283, 1.062e-5
0.284, 1.085e-5
0.285, 1.098e-5
0.286, 1.117e-5
0.287, 1.139e-5
0.288, 1.157e-5
0.289, 1.181e-5
0.290, 1.199e-5
0.291, 1.222e-5
0.292, 1.246e-5
0.293, 1.261e-5
0.294, 1.284e-5
0.295, 1.307e-5
0.296, 1.330e-5
0.297, 1.355e-5
0.298, 1.376e-5
0.299, 1.401e-5
0.300, 1.429e-5
0.301, 1.449e-5
0.302, 1.478e-5
0.303, 1.502e-5
0.304, 1.528e-5
0.305, 1.555e-5
0.306, 1.580e-5
0.307, 1.629e-5
0.308, 1.657e-5
0.309, 1.670e-5
0.310, 1.700e-5
0.311, 1.728e-5
0.312, 1.758e-5
0.313, 1.787e-5
0.314, 1.815e-5
0.315, 1.849e-5
0.316, 1.882e-5
0.317, 1.909e-5
0.318, 1.947e-5
0.319, 1.980e-5
0.320, 2.010e-5
0.321, 2.048e-5
0.322, 2.084e-5
0.323, 2.118e-5
0.324, 2.155e-5
0.325, 2.190e-5
0.326, 2.233e-5
0.327, 2.272e-5
0.328, 2.311e-5
0.329, 2.353e-5
0.330, 2.389e-5
0.331, 2.432e-5
0.332, 2.480e-5
0.333, 2.523e-5
0.334, 2.568e-5
0.335, 2.605e-5
0.336, 2.651e-5
0.337, 2.702e-5
0.338, 2.742e-5
0.339, 2.795e-5
0.340, 2.422e-5
0.339, 1.391e-5
0.338, 9.039e-6
0.337, 6.289e-6
0.336, 4.444e-6
0.335, 2.861e-6
0.334, 1.617e-6
0.333, 4.836e-7
0.332, -4.046e-7
0.331, -1.224e-6
0.330, -1.938e-6
0.329, -2.626e-6
0.328, -3.170e-6
0.327, -3.738e-6
0.326, -4.214e-6
0.325, -4.694e-6
0.324, -5.066e-6
0.323, -5.395e-6
0.322, -5.795e-6
0.321, -6.078e-6
0.320, -6.314e-6
0.319, -6.627e-6
0.318, -6.843e-6
0.317, -7.130e-6
0.316, -7.344e-6
0.315, -7.508e-6
0.314, -7.687e-6
0.313, -7.889e-6
0.312, -8.002e-6
0.311, -8.157e-6
0.310, -8.276e-6
0.309, -8.420e-6
0.308, -8.536e-6
0.307, -8.880e-6
0.306, -8.798e-6
0.305, -8.864e-6
0.304, -8.875e-6
0.303, -8.991e-6
0.302, -9.041e-6
0.301, -9.118e-6
0.300, -9.191e-6
0.299, -9.197e-6
0.298, -9.236e-6
0.297, -9.291e-6
0.296, -9.312e-6
0.295, -9.340e-6
0.294, -9.321e-6
0.293, -9.393e-6
0.292, -9.450e-6
0.291, -9.437e-6
0.290, -9.459e-6
0.289, -9.500e-6
0.288, -9.482e-6
0.287, -9.522e-6
0.286, -9.487e-6
0.285, -9.516e-6
0.284, -9.539e-6
0.283, -9.504e-6
0.282, -9.544e-6
0.281, -9.532e-6
0.280, -9.521e-6
0.279, -9.520e-6
0.278, -9.487e-6
0.277, -9.494e-6
0.276, -9.530e-6
0.275, -9.498e-6
0.274, -9.462e-6
0.273, -9.461e-6
0.272, -9.458e-6
0.271, -9.444e-6
0.270, -9.419e-6
0.269, -9.408e-6
0.268, -9.379e-6
0.267, -9.357e-6
0.266, -9.346e-6
0.265, -9.356e-6
0.264, -9.340e-6
0.263, -9.347e-6
0.262, -9.336e-6
0.261, -9.301e-6
0.260, -9.300e-6
0.259, -9.274e-6
0.258, -9.243e-6
0.257, -9.251e-6
0.256, -9.246e-6
0.255, -9.243e-6
0.254, -9.200e-6
0.253, -9.204e-6
0.252, -9.204e-6
0.251, -9.154e-6
0.250, -9.165e-6
0.249, -9.159e-6
0.248, -9.124e-6
0.247, -9.125e-6
0.246, -9.087e-6
0.245, -9.085e-6
0.244, -9.088e-6
0.243, -9.018e-6
0.242, -9.055e-6
0.241, -9.036e-6
0.240, -6.440e-6
0.241, -1.094e-6
0.242, 7.237e-7
0.243, 1.595e-6
0.244, 2.233e-6
0.245, 2.677e-6
0.246, 3.097e-6
0.247, 3.472e-6
0.248, 3.776e-6
0.249, 4.095e-6
0.250, 4.371e-6
0.251, 4.612e-6
0.252, 4.889e-6
0.253, 5.064e-6
0.254, 5.272e-6
0.255, 5.509e-6
0.256, 5.725e-6
0.257, 5.955e-6
0.258, 6.092e-6
0.259, 6.311e-6
0.260, 6.458e-6
0.261, 6.641e-6
0.262, 6.846e-6
0.263, 7.002e-6
0.264, 7.180e-6
0.265, 7.367e-6
0.266, 7.512e-6
0.267, 7.700e-6
0.268, 7.896e-6
0.269, 7.984e-6
0.270, 8.200e-6
0.271, 8.375e-6
0.272, 8.557e-6
0.273, 8.724e-6
0.274, 8.903e-6
0.275, 9.073e-6
0.276, 9.257e-6
0.277, 9.435e-6
0.278, 9.610e-6
0.279, 9.791e-6
0.280, 9.969e-6
0.281, 1.016e-5
0.282, 1.038e-5
0.283, 1.053e-5
0.284, 1.074e-5
0.285, 1.092e-5
0.286, 1.111e-5
0.287, 1.132e-5
0.288, 1.153e-5
0.289, 1.172e-5
0.290, 1.192e-5
0.291, 1.213e-5
0.292, 1.236e-5
0.293, 1.256e-5
0.294, 1.278e-5
0.295, 1.297e-5
0.296, 1.320e-5
0.297, 1.345e-5
0.298, 1.369e-5
0.299, 1.393e-5
0.300, 1.418e-5
0.301, 1.442e-5
0.302, 1.468e-5
0.303, 1.492e-5
0.304, 1.520e-5
0.305, 1.548e-5
0.306, 1.571e-5
0.307, 1.616e-5
0.308, 1.645e-5
0.309, 1.660e-5
0.310, 1.690e-5
0.311, 1.715e-5
0.312, 1.746e-5
0.313, 1.775e-5
0.314, 1.810e-5
0.315, 1.837e-5
0.316, 1.874e-5
0.317, 1.900e-5
0.318, 1.934e-5
0.319, 1.970e-5
0.320, 1.996e-5
0.321, 2.034e-5
0.322, 2.070e-5
0.323, 2.108e-5
0.324, 2.145e-5
0.325, 2.180e-5
0.326, 2.221e-5
0.327, 2.257e-5
0.328, 2.296e-5
0.329, 2.339e-5
0.330, 2.377e-5
0.331, 2.419e-5
0.332, 2.463e-5
0.333, 2.508e-5
0.334, 2.553e-5
0.335, 2.593e-5
0.336, 2.634e-5
0.337, 2.686e-5
0.338, 2.728e-5
0.339, 2.777e-5
0.340, 2.408e-5
0.339, 1.373e-5
0.338, 8.907e-6
0.337, 6.164e-6
0.336, 4.303e-6
0.335, 2.751e-6
0.334, 1.507e-6
0.333, 4.058e-7
0.332, -5.697e-7
0.331, -1.325e-6
0.330, -2.035e-6
0.329, -2.734e-6
0.328, -3.286e-6
0.327, -3.822e-6
0.326, -4.296e-6
0.325, -4.757e-6
0.324, -5.161e-6
0.323, -5.479e-6
0.322, -5.871e-6
0.321, -6.156e-6
0.320, -6.411e-6
0.319, -6.706e-6
0.318, -6.935e-6
0.317, -7.206e-6
0.316, -7.402e-6
0.315, -7.561e-6
0.314, -7.772e-6
0.313, -7.951e-6
0.312, -8.096e-6
0.311, -8.238e-6
0.310, -8.337e-6
0.309, -8.461e-6
0.308, -8.619e-6
0.307, -8.977e-6
0.306, -8.882e-6
0.305, -8.922e-6
0.304, -8.964e-6
0.303, -9.053e-6
0.302, -9.119e-6
0.301, -9.155e-6
0.300, -9.234e-6
0.299, -9.275e-6
0.298, -9.272e-6
0.297, -9.346e-6
0.296, -9.362e-6
0.295, -9.413e-6
0.294, -9.404e-6
0.293, -9.459e-6
0.292, -9.482e-6
0.291, -9.473e-6
0.290, -9.524e-6
0.289, -9.539e-6
0.288, -9.544e-6
0.287, -9.574e-6
0.286, -9.546e-6
0.285, -9.572e-6
0.284, -9.559e-6
0.283, -9.556e-6
0.282, -9.623e-6
0.281, -9.605e-6
0.280, -9.570e-6
0.279, -9.592e-6
0.278, -9.534e-6
0.277, -9.559e-6
0.276, -9.550e-6
0.275, -9.528e-6
0.274, -9.504e-6
0.273, -9.511e-6
0.272, -9.495e-6
0.271, -9.493e-6
0.270, -9.472e-6
0.269, -9.444e-6
0.268, -9.433e-6
0.267, -9.435e-6
0.266, -9.430e-6
0.265, -9.418e-6
0.264, -9.373e-6
0.263, -9.394e-6
0.262, -9.383e-6
0.261, -9.354e-6
0.260, -9.323e-6
0.259, -9.304e-6
0.258, -9.309e-6
0.257, -9.297e-6
0.256, -9.296e-6
0.255, -9.278e-6
0.254, -9.272e-6
0.253, -9.270e-6
0.252, -9.219e-6
0.251, -9.188e-6
0.250, -9.184e-6
0.249, -9.214e-6
0.248, -9.200e-6
0.247, -9.161e-6
0.246, -9.127e-6
0.245, -9.143e-6
0.244, -9.128e-6
0.243, -9.071e-6
0.242, -9.101e-6
0.241, -9.072e-6
0.240, -6.480e-6
0.241, -1.138e-6
0.242, 7.023e-7
0.243, 1.548e-6
0.244, 2.181e-6
0.245, 2.658e-6
0.246, 3.053e-6
0.247, 3.422e-6
0.248, 3.741e-6
0.249, 4.064e-6
0.250, 4.311e-6
0.251, 4.600e-6
0.252, 4.828e-6
0.253, 5.024e-6
0.254, 5.257e-6
0.255, 5.467e-6
0.256, 5.684e-6
0.257, 5.894e-6
0.258, 6.039e-6
0.259, 6.231e-6
0.260, 6.451e-6
0.261, 6.613e-6
0.262, 6.804e-6
0.263, 6.968e-6
0.264, 7.151e-6
0.265, 7.320e-6
0.266, 7.449e-6
0.267, 7.676e-6
0.268, 7.828e-6
0.269, 7.956e-6
0.270, 8.156e-6
0.271, 8.337e-6
0.272, 8.511e-6
0.273, 8.669e-6
0.274, 8.842e-6
0.275, 9.004e-6
0.276, 9.212e-6
0.277, 9.364e-6
0.278, 9.549e-6
0.279, 9.739e-6
0.280, 9.912e-6
0.281, 1.010e-5
0.282, 1.036e-5
0.283, 1.050e-5
0.284, 1.070e-5
0.285, 1.084e-5
0.286, 1.104e-5
0.287, 1.127e-5
0.288, 1.145e-5
0.289, 1.167e-5
0.290, 1.185e-5
0.291, 1.206e-5
0.292, 1.228e-5
0.293, 1.250e-5
0.294, 1.271e-5
0.295, 1.291e-5
0.296, 1.312e-5
0.297, 1.340e-5
0.298, 1.359e-5
0.299, 1.384e-5
0.300, 1.412e-5
0.301, 1.435e-5
0.302, 1.459e-5
0.303, 1.484e-5
0.304, 1.512e-5
0.305, 1.540e-5
0.306, 1.563e-5
0.307, 1.608e-5
0.308, 1.638e-5
0.309, 1.656e-5
0.310, 1.681e-5
0.311, 1.707e-5
0.312, 1.741e-5
0.313, 1.766e-5
0.314, 1.798e-5
0.315, 1.830e-5
0.316, 1.864e-5
0.317, 1.893e-5
0.318, 1.928e-5
0.319, 1.959e-5
0.320, 1.989e-5
0.321, 2.027e-5
0.322, 2.064e-5
0.323, 2.098e-5
0.324, 2.138e-5
0.325, 2.171e-5
0.326, 2.208e-5
0.327, 2.249e-5
0.328, 2.286e-5
0.329, 2.329e-5
0.330, 2.363e-5
0.331, 2.406e-5
0.332, 2.453e-5
0.333, 2.498e-5
0.334, 2.544e-5
0.335, 2.585e-5
0.336, 2.625e-5
0.337, 2.671e-5
0.338, 2.716e-5
0.339, 2.770e-5
0.340, 2.397e-5
0.339, 1.365e-5
0.338, 8.819e-6
0.337, 6.134e-6
0.336, 4.224e-6
0.335, 2.662e-6
0.334, 1.420e-6
0.333, 3.336e-7
0.332, -6.267e-7
0.331, -1.445e-6
0.330, -2.113e-6
0.329, -2.765e-6
0.328, -3.347e-6
0.327, -3.911e-6
0.326, -4.381e-6
0.325, -4.850e-6
0.324, -5.249e-6
0.323, -5.562e-6
0.322, -5.931e-6
0.321, -6.234e-6
0.320, -6.444e-6
0.319, -6.762e-6
0.318, -7.000e-6
0.317, -7.239e-6
0.316, -7.452e-6
0.315, -7.639e-6
0.314, -7.845e-6
0.313, -8.004e-6
0.312, -8.164e-6
0.311, -8.290e-6
0.310, -8.397e-6
0.309, -8.537e-6
0.308, -8.655e-6
0.307, -8.997e-6
0.306, -8.936e-6
0.305, -8.974e-6
0.304, -9.013e-6
0.303, -9.118e-6
0.302, -9.158e-6
0.301, -9.208e-6
0.300, -9.249e-6
0.299, -9.321e-6
0.298, -9.332e-6
0.297, -9.414e-6
0.296, -9.410e-6
0.295, -9.471e-6
0.294, -9.448e-6
0.293, -9.477e-6
0.292, -9.537e-6
0.291, -9.535e-6
0.290, -9.562e-6
0.289, -9.592e-6
0.288, -9.586e-6
0.287, -9.632e-6
0.286, -9.597e-6
0.285, -9.608e-6
0.284, -9.619e-6
0.283, -9.601e-6
0.282, -9.636e-6
0.281, -9.632e-6
0.280, -9.608e-6
0.279, -9.639e-6
0.278, -9.599e-6
0.277, -9.589e-6
0.276, -9.573e-6
0.275, -9.592e-6
0.274, -9.556e-6
0.273, -9.527e-6
0.272, -9.541e-6
0.271, -9.533e-6
0.270, -9.509e-6
0.269, -9.471e-6
0.268, -9.469e-6
0.267, -9.446e-6
0.266, -9.435e-6
0.265, -9.467e-6
0.264, -9.429e-6
0.263, -9.427e-6
0.262, -9.407e-6
0.261, -9.397e-6
0.260, -9.391e-6
0.259, -9.359e-6
0.258, -9.332e-6
0.257, -9.355e-6
0.256, -9.333e-6
0.255, -9.319e-6
0.254, -9.293e-6
0.253, -9.269e-6
0.252, -9.264e-6
0.251, -9.218e-6
0.250, -9.241e-6
0.249, -9.248e-6
0.248, -9.204e-6
0.247, -9.215e-6
0.246, -9.179e-6
0.245, -9.182e-6
0.244, -9.166e-6
0.243, -9.094e-6
0.242, -9.111e-6
0.241, -9.103e-6
0.240, -6.528e-6
0.241, -1.166e-6
0.242, 6.542e-7
0.243, 1.528e-6
0.244, 2.149e-6
0.245, 2.605e-6
0.246, 3.035e-6
0.247, 3.408e-6
0.248, 3.716e-6
0.249, 4.022e-6
0.250, 4.274e-6
0.251, 4.556e-6
0.252, 4.779e-6
0.253, 4.969e-6
0.254, 5.229e-6
0.255, 5.444e-6
0.256, 5.655e-6
0.257, 5.864e-6
0.258, 6.039e-6
0.259, 6.191e-6
0.260, 6.403e-6
0.261, 6.572e-6
0.262, 6.765e-6
0.263, 6.938e-6
0.264, 7.082e-6
0.265, 7.291e-6
0.266, 7.418e-6
0.267, 7.628e-6
0.268, 7.816e-6
0.269, 7.910e-6
0.270, 8.121e-6
0.271, 8.298e-6
0.272, 8.463e-6
0.273, 8.614e-6
0.274, 8.795e-6
0.275, 8.993e-6
0.276, 9.153e-6
0.277, 9.345e-6
0.278, 9.497e-6
0.279, 9.687e-6
0.280, 9.853e-6
0.281, 1.007e-5
0.282, 1.030e-5
0.283, 1.045e-5
0.284, 1.066e-5
0.285, 1.080e-5
0.286, 1.101e-5
0.287, 1.122e-5
0.288, 1.140e-5
0.289, 1.163e-5
0.290, 1.179e-5
0.291, 1.200e-5
0.292, 1.225e-5
0.293, 1.244e-5
0.294, 1.265e-5
0.295, 1.284e-5
0.296, 1.308e-5
0.297, 1.334e-5
0.298, 1.354e-5
0.299, 1.383e-5
0.300, 1.407e-5
0.301, 1.430e-5
0.302, 1.456e-5
0.303, 1.478e-5
0.304, 1.504e-5
0.305, 1.532e-5
0.306, 1.556e-5
0.307, 1.603e-5
0.308, 1.629e-5
0.309, 1.647e-5
0.310, 1.674e-5
0.311, 1.702e-5
0.312, 1.731e-5
0.313, 1.763e-5
0.314, 1.792e-5
0.315, 1.825e-5
0.316, 1.858e-5
0.317, 1.886e-5
0.318, 1.920e-5
0.319, 1.952e-5
0.320, 1.980e-5
0.321, 2.020e-5
0.322, 2.054e-5
0.323, 2.086e-5
0.324, 2.129e-5
0.325, 2.163e-5
0.326, 2.202e-5
0.327, 2.242e-5
0.328, 2.276e-5
0.329, 2.322e-5
0.330, 2.355e-5
0.331, 2.403e-5
0.332, 2.442e-5
0.333, 2.491e-5
0.334, 2.531e-5
0.335, 2.572e-5
0.336, 2.616e-5
0.337, 2.665e-5
0.338, 2.708e-5
0.339, 2.757e-5
0.340, 2.387e-5
0.339, 1.359e-5
0.338, 8.736e-6
0.337, 6.022e-6
0.336, 4.170e-6
0.335, 2.559e-6
0.334, 1.345e-6
0.333, 2.393e-7
0.332, -7.281e-7
0.331, -1.479e-6
0.330, -2.200e-6
0.329, -2.835e-6
0.328, -3.441e-6
0.327, -3.985e-6
0.326, -4.416e-6
0.325, -4.876e-6
0.324, -5.304e-6
0.323, -5.630e-6
0.322, -5.982e-6
0.321, -6.313e-6
0.320, -6.492e-6
0.319, -6.820e-6
0.318, -7.064e-6
0.317, -7.286e-6
0.316, -7.502e-6
0.315, -7.683e-6
0.314, -7.887e-6
0.313, -8.046e-6
0.312, -8.215e-6
0.311, -8.324e-6
0.310, -8.452e-6
0.309, -8.573e-6
0.308, -8.698e-6
0.307, -9.043e-6
0.306, -8.988e-6
0.305, -9.028e-6
0.304, -9.043e-6
0.303, -9.137e-6
0.302, -9.170e-6
0.301, -9.251e-6
0.300, -9.335e-6
0.299, -9.357e-6
0.298, -9.371e-6
0.297, -9.433e-6
0.296, -9.456e-6
0.295, -9.506e-6
0.294, -9.479e-6
0.293, -9.505e-6
0.292, -9.569e-6
0.291, -9.537e-6
0.290, -9.603e-6
0.289, -9.621e-6
0.288, -9.624e-6
0.287, -9.642e-6
0.286, -9.604e-6
0.285, -9.630e-6
0.284, -9.652e-6
0.283, -9.596e-6
0.282, -9.660e-6
0.281, -9.679e-6
0.280, -9.660e-6
0.279, -9.648e-6
0.278, -9.614e-6
0.277, -9.619e-6
0.276, -9.612e-6
0.275, -9.604e-6
0.274, -9.614e-6
0.273, -9.575e-6
0.272, -9.546e-6
0.271, -9.562e-6
0.270, -9.539e-6
0.269, -9.498e-6
0.268, -9.485e-6
0.267, -9.493e-6
0.266, -9.477e-6
0.265, -9.479e-6
0.264, -9.440e-6
0.263, -9.450e-6
0.262, -9.441e-6
0.261, -9.409e-6
0.260, -9.420e-6
0.259, -9.368e-6
0.258, -9.362e-6
0.257, -9.387e-6
0.256, -9.373e-6
0.255, -9.353e-6
0.254, -9.297e-6
0.253, -9.288e-6
0.252, -9.288e-6
0.251, -9.257e-6
0.250, -9.268e-6
0.249, -9.257e-6
0.248, -9.216e-6
0.247, -9.236e-6
0.246, -9.200e-6
0.245, -9.203e-6
0.244, -9.194e-6
0.243, -9.126e-6
0.242, -9.136e-6
0.241, -9.144e-6
0.240, -6.555e-6
0.241, -1.195e-6
0.242, 6.291e-7
0.243, 1.504e-6
0.244, 2.122e-6
0.245, 2.589e-6
0.246, 3.004e-6
0.247, 3.394e-6
0.248, 3.671e-6
0.249, 4.004e-6
0.250, 4.271e-6
0.251, 4.501e-6
0.252, 4.756e-6
0.253, 4.946e-6
0.254, 5.191e-6
0.255, 5.401e-6
0.256, 5.637e-6
0.257, 5.850e-6
0.258, 6.002e-6
0.259, 6.182e-6
0.260, 6.375e-6
0.261, 6.542e-6
0.262, 6.742e-6
0.263, 6.896e-6
0.264, 7.076e-6
0.265, 7.257e-6
0.266, 7.405e-6
0.267, 7.600e-6
0.268, 7.769e-6
0.269, 7.869e-6
0.270, 8.085e-6
0.271, 8.255e-6
0.272, 8.424e-6
0.273, 8.604e-6
0.274, 8.765e-6
0.275, 8.958e-6
0.276, 9.134e-6
0.277, 9.283e-6
0.278, 9.494e-6
0.279, 9.659e-6
0.280, 9.841e-6
0.281, 1.002e-5
0.282, 1.024e-5
0.283, 1.041e-5
0.284, 1.059e-5
0.285, 1.077e-5
0.286, 1.097e-5
0.287, 1.117e-5
0.288, 1.135e-5
0.289, 1.159e-5
0.290, 1.176e-5
0.291, 1.196e-5
0.292, 1.221e-5
0.293, 1.239e-5
0.294, 1.260e-5
0.295, 1.280e-5
0.296, 1.302e-5
0.297, 1.330e-5
0.298, 1.350e-5
0.299, 1.374e-5
0.300, 1.399e-5
0.301, 1.425e-5
0.302, 1.453e-5
0.303, 1.474e-5
0.304, 1.500e-5
0.305, 1.528e-5
0.306, 1.554e-5
0.307, 1.597e-5
0.308, 1.626e-5
0.309, 1.643e-5
0.310, 1.668e-5
0.311, 1.695e-5
0.312, 1.727e-5
0.313, 1.758e-5
0.314, 1.785e-5
0.315, 1.817e-5
0.316, 1.849e-5
0.317, 1.880e-5
0.318, 1.914e-5
0.319, 1.948e-5
0.320, 1.976e-5
0.321, 2.013e-5
0.322, 2.049e-5
0.323, 2.081e-5
0.324, 2.122e-5
0.325, 2.157e-5
0.326, 2.196e-5
0.327, 2.235e-5
0.328, 2.272e-5
0.329, 2.315e-5
0.330, 2.351e-5
0.331, 2.394e-5
0.332, 2.435e-5
0.333, 2.483e-5
0.334, 2.525e-5
0.335, 2.567e-5
0.336, 2.612e-5
0.337, 2.657e-5
0.338, 2.698e-5
0.339, 2.750e-5
0.340, 2.379e-5
0.339, 1.349e-5
0.338, 8.689e-6
0.337, 5.961e-6
0.336, 4.079e-6
0.335, 2.535e-6
0.334, 1.271e-6
0.333, 2.214e-7
0.332, -7.417e-7
0.331, -1.517e-6
0.330, -2.262e-6
0.329, -2.876e-6
0.328, -3.452e-6
0.327, -4.031e-6
0.326, -4.462e-6
0.325, -4.905e-6
0.324, -5.354e-6
0.323, -5.643e-6
0.322, -6.036e-6
0.321, -6.369e-6
0.320, -6.584e-6
0.319, -6.848e-6
0.318, -7.097e-6
0.317, -7.328e-6
0.316, -7.527e-6
0.315, -7.711e-6
0.314, -7.927e-6
0.313, -8.052e-6
0.312, -8.209e-6
0.311, -8.367e-6
0.310, -8.451e-6
0.309, -8.610e-6
0.308, -8.750e-6
0.307, -9.088e-6
0.306, -8.991e-6
0.305, -9.074e-6
0.304, -9.068e-6
0.303, -9.162e-6
0.302, -9.226e-6
0.301, -9.295e-6
0.300, -9.351e-6
0.299, -9.388e-6
0.298, -9.441e-6
0.297, -9.432e-6
0.296, -9.467e-6
0.295, -9.506e-6
0.294, -9.491e-6
0.293, -9.541e-6
0.292, -9.577e-6
0.291, -9.597e-6
0.290, -9.614e-6
0.289, -9.685e-6
0.288, -9.632e-6
0.287, -9.669e-6
0.286, -9.642e-6
0.285, -9.663e-6
0.284, -9.676e-6
0.283, -9.647e-6
0.282, -9.662e-6
0.281, -9.709e-6
0.280, -9.637e-6
0.279, -9.654e-6
0.278, -9.633e-6
0.277, -9.666e-6
0.276, -9.634e-6
0.275, -9.615e-6
0.274, -9.622e-6
0.273, -9.604e-6
0.272, -9.600e-6
0.271, -9.590e-6
0.270, -9.542e-6
0.269, -9.518e-6
0.268, -9.506e-6
0.267, -9.499e-6
0.266, -9.502e-6
0.265, -9.503e-6
0.264, -9.487e-6
0.263, -9.454e-6
0.262, -9.452e-6
0.261, -9.437e-6
0.260, -9.410e-6
0.259, -9.401e-6
0.258, -9.381e-6
0.257, -9.390e-6
0.256, -9.391e-6
0.255, -9.382e-6
0.254, -9.314e-6
0.253, -9.329e-6
0.252, -9.324e-6
0.251, -9.288e-6
0.250, -9.282e-6
0.249, -9.289e-6
0.248, -9.247e-6
0.247, -9.255e-6
0.246, -9.225e-6
0.245, -9.218e-6
0.244, -9.226e-6
0.243, -9.154e-6
0.242, -9.165e-6
0.241, -9.173e-6
