Sept. 9, 2026   18:12:49
Cyclic Voltammetry
File: d:\desktop\sample\ni foil\ni_foil_cv 100 mv.bin
Data Source:  Experiment
Instrument Model:  CHI660D
Header: 
Note: 

Init E (V) = 0.15
High E (V) = 0.25
Low E (V) = 0.15
Init P/N = P
Scan Rate (V/s) = 0.1
Segment = 20
Sample Interval (V) = 0.001
Quiet Time (sec) = 10
Sensitivity (A/V) = 0.001

Results:

Channel 1:
Segment 1:

Segment 2:

Segment 3:

Segment 4:

Segment 5:

Segment 6:

Segment 7:

Segment 8:

Segment 9:

Segment 10:

Segment 11:

Segment 12:

Segment 13:

Segment 14:

Segment 15:

Segment 16:

Segment 17:

Segment 18:

Segment 19:

Segment 20:

Potential/V, Current/A

0.150, 7.718e-6
0.151, 1.280e-5
0.152, 1.358e-5
0.153, 1.445e-5
0.154, 1.488e-5
0.155, 1.525e-5
0.156, 1.569e-5
0.157, 1.587e-5
0.158, 1.622e-5
0.159, 1.657e-5
0.160, 1.664e-5
0.161, 1.700e-5
0.162, 1.712e-5
0.163, 1.733e-5
0.164, 1.756e-5
0.165, 1.758e-5
0.166, 1.769e-5
0.167, 1.806e-5
0.168, 1.808e-5
0.169, 1.833e-5
0.170, 1.845e-5
0.171, 1.866e-5
0.172, 1.881e-5
0.173, 1.900e-5
0.174, 1.894e-5
0.175, 1.929e-5
0.176, 1.926e-5
0.177, 1.948e-5
0.178, 1.970e-5
0.179, 1.986e-5
0.180, 2.005e-5
0.181, 2.006e-5
0.182, 2.001e-5
0.183, 2.050e-5
0.184, 2.030e-5
0.185, 2.068e-5
0.186, 2.074e-5
0.187, 2.083e-5
0.188, 2.112e-5
0.189, 2.107e-5
0.190, 2.133e-5
0.191, 2.154e-5
0.192, 2.126e-5
0.193, 2.183e-5
0.194, 2.180e-5
0.195, 2.212e-5
0.196, 2.227e-5
0.197, 2.224e-5
0.198, 2.251e-5
0.199, 2.271e-5
0.200, 2.277e-5
0.201, 2.306e-5
0.202, 2.309e-5
0.203, 2.335e-5
0.204, 2.355e-5
0.205, 2.328e-5
0.206, 2.370e-5
0.207, 2.415e-5
0.208, 2.415e-5
0.209, 2.443e-5
0.210, 2.456e-5
0.211, 2.486e-5
0.212, 2.497e-5
0.213, 2.524e-5
0.214, 2.518e-5
0.215, 2.578e-5
0.216, 2.569e-5
0.217, 2.603e-5
0.218, 2.614e-5
0.219, 2.647e-5
0.220, 2.673e-5
0.221, 2.689e-5
0.222, 2.709e-5
0.223, 2.755e-5
0.224, 2.754e-5
0.225, 2.798e-5
0.226, 2.819e-5
0.227, 2.840e-5
0.228, 2.880e-5
0.229, 2.903e-5
0.230, 2.926e-5
0.231, 2.970e-5
0.232, 2.968e-5
0.233, 3.027e-5
0.234, 3.012e-5
0.235, 3.078e-5
0.236, 3.116e-5
0.237, 3.136e-5
0.238, 3.155e-5
0.239, 3.201e-5
0.240, 3.212e-5
0.241, 3.251e-5
0.242, 3.288e-5
0.243, 3.312e-5
0.244, 3.353e-5
0.245, 3.401e-5
0.246, 3.426e-5
0.247, 3.473e-5
0.248, 3.503e-5
0.249, 3.549e-5
0.250, 1.292e-5
0.249, -5.195e-6
0.248, -9.078e-6
0.247, -1.145e-5
0.246, -1.338e-5
0.245, -1.468e-5
0.244, -1.560e-5
0.243, -1.657e-5
0.242, -1.700e-5
0.241, -1.787e-5
0.240, -1.794e-5
0.239, -1.859e-5
0.238, -1.903e-5
0.237, -1.919e-5
0.236, -1.945e-5
0.235, -1.958e-5
0.234, -1.969e-5
0.233, -2.018e-5
0.232, -1.993e-5
0.231, -2.044e-5
0.230, -2.038e-5
0.229, -2.026e-5
0.228, -2.040e-5
0.227, -2.034e-5
0.226, -2.032e-5
0.225, -2.051e-5
0.224, -2.046e-5
0.223, -2.049e-5
0.222, -2.054e-5
0.221, -2.045e-5
0.220, -2.037e-5
0.219, -2.049e-5
0.218, -2.026e-5
0.217, -2.043e-5
0.216, -2.034e-5
0.215, -2.021e-5
0.214, -2.038e-5
0.213, -2.021e-5
0.212, -2.018e-5
0.211, -2.037e-5
0.210, -2.006e-5
0.209, -2.030e-5
0.208, -1.996e-5
0.207, -2.008e-5
0.206, -1.991e-5
0.205, -1.954e-5
0.204, -1.998e-5
0.203, -1.975e-5
0.202, -1.988e-5
0.201, -1.992e-5
0.200, -1.973e-5
0.199, -1.974e-5
0.198, -1.987e-5
0.197, -1.972e-5
0.196, -1.979e-5
0.195, -1.955e-5
0.194, -1.958e-5
0.193, -1.978e-5
0.192, -1.941e-5
0.191, -1.954e-5
0.190, -1.957e-5
0.189, -1.951e-5
0.188, -1.950e-5
0.187, -1.956e-5
0.186, -1.948e-5
0.185, -1.961e-5
0.184, -1.935e-5
0.183, -1.949e-5
0.182, -1.945e-5
0.181, -1.950e-5
0.180, -1.950e-5
0.179, -1.957e-5
0.178, -1.945e-5
0.177, -1.955e-5
0.176, -1.944e-5
0.175, -1.937e-5
0.174, -1.967e-5
0.173, -1.945e-5
0.172, -1.952e-5
0.171, -1.951e-5
0.170, -1.945e-5
0.169, -1.963e-5
0.168, -1.955e-5
0.167, -1.942e-5
0.166, -1.958e-5
0.165, -1.962e-5
0.164, -1.963e-5
0.163, -1.968e-5
0.162, -1.974e-5
0.161, -1.977e-5
0.160, -1.973e-5
0.159, -1.974e-5
0.158, -1.987e-5
0.157, -1.987e-5
0.156, -1.994e-5
0.155, -1.994e-5
0.154, -1.990e-5
0.153, -2.021e-5
0.152, -2.002e-5
0.151, -2.009e-5
0.150, -5.090e-6
0.151, 5.328e-6
0.152, 7.171e-6
0.153, 8.669e-6
0.154, 9.534e-6
0.155, 1.028e-5
0.156, 1.105e-5
0.157, 1.151e-5
0.158, 1.194e-5
0.159, 1.252e-5
0.160, 1.287e-5
0.161, 1.331e-5
0.162, 1.346e-5
0.163, 1.396e-5
0.164, 1.422e-5
0.165, 1.447e-5
0.166, 1.452e-5
0.167, 1.506e-5
0.168, 1.511e-5
0.169, 1.550e-5
0.170, 1.558e-5
0.171, 1.588e-5
0.172, 1.622e-5
0.173, 1.636e-5
0.174, 1.638e-5
0.175, 1.676e-5
0.176, 1.674e-5
0.177, 1.705e-5
0.178, 1.727e-5
0.179, 1.744e-5
0.180, 1.757e-5
0.181, 1.774e-5
0.182, 1.777e-5
0.183, 1.817e-5
0.184, 1.819e-5
0.185, 1.843e-5
0.186, 1.854e-5
0.187, 1.870e-5
0.188, 1.891e-5
0.189, 1.908e-5
0.190, 1.905e-5
0.191, 1.945e-5
0.192, 1.927e-5
0.193, 1.974e-5
0.194, 1.974e-5
0.195, 1.998e-5
0.196, 2.018e-5
0.197, 2.035e-5
0.198, 2.041e-5
0.199, 2.084e-5
0.200, 2.074e-5
0.201, 2.104e-5
0.202, 2.116e-5
0.203, 2.141e-5
0.204, 2.153e-5
0.205, 2.124e-5
0.206, 2.178e-5
0.207, 2.229e-5
0.208, 2.204e-5
0.209, 2.256e-5
0.210, 2.254e-5
0.211, 2.286e-5
0.212, 2.317e-5
0.213, 2.324e-5
0.214, 2.347e-5
0.215, 2.375e-5
0.216, 2.394e-5
0.217, 2.405e-5
0.218, 2.432e-5
0.219, 2.453e-5
0.220, 2.501e-5
0.221, 2.486e-5
0.222, 2.530e-5
0.223, 2.573e-5
0.224, 2.581e-5
0.225, 2.619e-5
0.226, 2.632e-5
0.227, 2.643e-5
0.228, 2.700e-5
0.229, 2.707e-5
0.230, 2.760e-5
0.231, 2.783e-5
0.232, 2.785e-5
0.233, 2.838e-5
0.234, 2.860e-5
0.235, 2.906e-5
0.236, 2.935e-5
0.237, 2.966e-5
0.238, 2.976e-5
0.239, 3.045e-5
0.240, 3.050e-5
0.241, 3.086e-5
0.242, 3.134e-5
0.243, 3.145e-5
0.244, 3.191e-5
0.245, 3.247e-5
0.246, 3.227e-5
0.247, 3.320e-5
0.248, 3.352e-5
0.249, 3.394e-5
0.250, 1.131e-5
0.249, -6.647e-6
0.248, -1.033e-5
0.247, -1.290e-5
0.246, -1.475e-5
0.245, -1.586e-5
0.244, -1.681e-5
0.243, -1.747e-5
0.242, -1.800e-5
0.241, -1.890e-5
0.240, -1.895e-5
0.239, -1.966e-5
0.238, -1.972e-5
0.237, -2.003e-5
0.236, -2.033e-5
0.235, -2.045e-5
0.234, -2.061e-5
0.233, -2.089e-5
0.232, -2.068e-5
0.231, -2.105e-5
0.230, -2.099e-5
0.229, -2.096e-5
0.228, -2.116e-5
0.227, -2.105e-5
0.226, -2.106e-5
0.225, -2.107e-5
0.224, -2.103e-5
0.223, -2.117e-5
0.222, -2.102e-5
0.221, -2.100e-5
0.220, -2.101e-5
0.219, -2.098e-5
0.218, -2.068e-5
0.217, -2.106e-5
0.216, -2.078e-5
0.215, -2.079e-5
0.214, -2.075e-5
0.213, -2.068e-5
0.212, -2.063e-5
0.211, -2.057e-5
0.210, -2.054e-5
0.209, -2.073e-5
0.208, -2.045e-5
0.207, -2.045e-5
0.206, -2.050e-5
0.205, -1.994e-5
0.204, -2.017e-5
0.203, -2.033e-5
0.202, -2.011e-5
0.201, -2.031e-5
0.200, -2.005e-5
0.199, -2.020e-5
0.198, -2.016e-5
0.197, -2.015e-5
0.196, -2.000e-5
0.195, -1.992e-5
0.194, -2.000e-5
0.193, -2.005e-5
0.192, -1.969e-5
0.191, -1.998e-5
0.190, -1.980e-5
0.189, -1.984e-5
0.188, -1.986e-5
0.187, -1.982e-5
0.186, -1.981e-5
0.185, -1.991e-5
0.184, -1.978e-5
0.183, -1.974e-5
0.182, -1.977e-5
0.181, -1.974e-5
0.180, -1.981e-5
0.179, -1.993e-5
0.178, -1.970e-5
0.177, -1.986e-5
0.176, -1.977e-5
0.175, -1.961e-5
0.174, -1.975e-5
0.173, -1.982e-5
0.172, -1.978e-5
0.171, -1.988e-5
0.170, -1.976e-5
0.169, -1.991e-5
0.168, -1.975e-5
0.167, -1.976e-5
0.166, -1.990e-5
0.165, -1.989e-5
0.164, -1.999e-5
0.163, -1.991e-5
0.162, -1.994e-5
0.161, -2.019e-5
0.160, -2.006e-5
0.159, -2.000e-5
0.158, -2.023e-5
0.157, -2.011e-5
0.156, -2.015e-5
0.155, -2.024e-5
0.154, -2.031e-5
0.153, -2.047e-5
0.152, -2.037e-5
0.151, -2.036e-5
0.150, -5.262e-6
0.151, 5.039e-6
0.152, 6.952e-6
0.153, 8.384e-6
0.154, 9.303e-6
0.155, 1.003e-5
0.156, 1.082e-5
0.157, 1.135e-5
0.158, 1.179e-5
0.159, 1.237e-5
0.160, 1.264e-5
0.161, 1.302e-5
0.162, 1.343e-5
0.163, 1.371e-5
0.164, 1.401e-5
0.165, 1.436e-5
0.166, 1.436e-5
0.167, 1.481e-5
0.168, 1.494e-5
0.169, 1.531e-5
0.170, 1.552e-5
0.171, 1.579e-5
0.172, 1.601e-5
0.173, 1.603e-5
0.174, 1.625e-5
0.175, 1.671e-5
0.176, 1.662e-5
0.177, 1.692e-5
0.178, 1.701e-5
0.179, 1.732e-5
0.180, 1.749e-5
0.181, 1.753e-5
0.182, 1.760e-5
0.183, 1.797e-5
0.184, 1.794e-5
0.185, 1.824e-5
0.186, 1.834e-5
0.187, 1.854e-5
0.188, 1.873e-5
0.189, 1.881e-5
0.190, 1.899e-5
0.191, 1.922e-5
0.192, 1.911e-5
0.193, 1.960e-5
0.194, 1.960e-5
0.195, 1.987e-5
0.196, 1.991e-5
0.197, 2.009e-5
0.198, 2.030e-5
0.199, 2.063e-5
0.200, 2.063e-5
0.201, 2.081e-5
0.202, 2.094e-5
0.203, 2.129e-5
0.204, 2.138e-5
0.205, 2.117e-5
0.206, 2.152e-5
0.207, 2.199e-5
0.208, 2.198e-5
0.209, 2.227e-5
0.210, 2.249e-5
0.211, 2.262e-5
0.212, 2.287e-5
0.213, 2.316e-5
0.214, 2.308e-5
0.215, 2.364e-5
0.216, 2.368e-5
0.217, 2.390e-5
0.218, 2.414e-5
0.219, 2.434e-5
0.220, 2.469e-5
0.221, 2.482e-5
0.222, 2.503e-5
0.223, 2.542e-5
0.224, 2.544e-5
0.225, 2.602e-5
0.226, 2.612e-5
0.227, 2.637e-5
0.228, 2.665e-5
0.229, 2.685e-5
0.230, 2.728e-5
0.231, 2.768e-5
0.232, 2.766e-5
0.233, 2.821e-5
0.234, 2.827e-5
0.235, 2.877e-5
0.236, 2.892e-5
0.237, 2.950e-5
0.238, 2.948e-5
0.239, 3.021e-5
0.240, 3.025e-5
0.241, 3.060e-5
0.242, 3.096e-5
0.243, 3.119e-5
0.244, 3.159e-5
0.245, 3.213e-5
0.246, 3.226e-5
0.247, 3.309e-5
0.248, 3.305e-5
0.249, 3.347e-5
0.250, 1.121e-5
0.249, -6.863e-6
0.248, -1.064e-5
0.247, -1.311e-5
0.246, -1.486e-5
0.245, -1.602e-5
0.244, -1.714e-5
0.243, -1.761e-5
0.242, -1.830e-5
0.241, -1.926e-5
0.240, -1.918e-5
0.239, -1.966e-5
0.238, -2.005e-5
0.237, -2.023e-5
0.236, -2.059e-5
0.235, -2.048e-5
0.234, -2.068e-5
0.233, -2.101e-5
0.232, -2.096e-5
0.231, -2.130e-5
0.230, -2.108e-5
0.229, -2.120e-5
0.228, -2.117e-5
0.227, -2.116e-5
0.226, -2.125e-5
0.225, -2.134e-5
0.224, -2.116e-5
0.223, -2.116e-5
0.222, -2.122e-5
0.221, -2.115e-5
0.220, -2.113e-5
0.219, -2.117e-5
0.218, -2.082e-5
0.217, -2.102e-5
0.216, -2.088e-5
0.215, -2.080e-5
0.214, -2.088e-5
0.213, -2.084e-5
0.212, -2.087e-5
0.211, -2.076e-5
0.210, -2.059e-5
0.209, -2.075e-5
0.208, -2.053e-5
0.207, -2.059e-5
0.206, -2.054e-5
0.205, -1.998e-5
0.204, -2.039e-5
0.203, -2.037e-5
0.202, -2.014e-5
0.201, -2.047e-5
0.200, -2.014e-5
0.199, -2.026e-5
0.198, -2.015e-5
0.197, -2.011e-5
0.196, -2.024e-5
0.195, -2.004e-5
0.194, -2.006e-5
0.193, -2.006e-5
0.192, -1.975e-5
0.191, -2.010e-5
0.190, -1.994e-5
0.189, -1.985e-5
0.188, -2.000e-5
0.187, -1.987e-5
0.186, -1.989e-5
0.185, -2.001e-5
0.184, -1.974e-5
0.183, -1.976e-5
0.182, -1.995e-5
0.181, -1.988e-5
0.180, -1.991e-5
0.179, -1.992e-5
0.178, -1.982e-5
0.177, -1.997e-5
0.176, -1.983e-5
0.175, -1.986e-5
0.174, -1.986e-5
0.173, -1.988e-5
0.172, -1.997e-5
0.171, -1.994e-5
0.170, -1.984e-5
0.169, -2.005e-5
0.168, -1.981e-5
0.167, -1.984e-5
0.166, -2.002e-5
0.165, -2.000e-5
0.164, -1.997e-5
0.163, -2.008e-5
0.162, -1.998e-5
0.161, -2.027e-5
0.160, -2.012e-5
0.159, -2.019e-5
0.158, -2.030e-5
0.157, -2.021e-5
0.156, -2.036e-5
0.155, -2.038e-5
0.154, -2.032e-5
0.153, -2.060e-5
0.152, -2.043e-5
0.151, -2.055e-5
0.150, -5.415e-6
0.151, 4.996e-6
0.152, 6.870e-6
0.153, 8.304e-6
0.154, 9.256e-6
0.155, 1.021e-5
0.156, 1.064e-5
0.157, 1.127e-5
0.158, 1.170e-5
0.159, 1.227e-5
0.160, 1.269e-5
0.161, 1.295e-5
0.162, 1.329e-5
0.163, 1.368e-5
0.164, 1.400e-5
0.165, 1.425e-5
0.166, 1.428e-5
0.167, 1.489e-5
0.168, 1.495e-5
0.169, 1.515e-5
0.170, 1.558e-5
0.171, 1.560e-5
0.172, 1.591e-5
0.173, 1.616e-5
0.174, 1.620e-5
0.175, 1.660e-5
0.176, 1.659e-5
0.177, 1.689e-5
0.178, 1.699e-5
0.179, 1.730e-5
0.180, 1.742e-5
0.181, 1.743e-5
0.182, 1.757e-5
0.183, 1.791e-5
0.184, 1.780e-5
0.185, 1.823e-5
0.186, 1.827e-5
0.187, 1.845e-5
0.188, 1.880e-5
0.189, 1.874e-5
0.190, 1.893e-5
0.191, 1.927e-5
0.192, 1.893e-5
0.193, 1.947e-5
0.194, 1.953e-5
0.195, 1.986e-5
0.196, 1.985e-5
0.197, 2.022e-5
0.198, 2.020e-5
0.199, 2.045e-5
0.200, 2.049e-5
0.201, 2.077e-5
0.202, 2.087e-5
0.203, 2.121e-5
0.204, 2.129e-5
0.205, 2.104e-5
0.206, 2.145e-5
0.207, 2.194e-5
0.208, 2.200e-5
0.209, 2.220e-5
0.210, 2.237e-5
0.211, 2.259e-5
0.212, 2.279e-5
0.213, 2.293e-5
0.214, 2.312e-5
0.215, 2.361e-5
0.216, 2.346e-5
0.217, 2.388e-5
0.218, 2.404e-5
0.219, 2.426e-5
0.220, 2.460e-5
0.221, 2.464e-5
0.222, 2.494e-5
0.223, 2.535e-5
0.224, 2.539e-5
0.225, 2.596e-5
0.226, 2.593e-5
0.227, 2.625e-5
0.228, 2.655e-5
0.229, 2.681e-5
0.230, 2.730e-5
0.231, 2.749e-5
0.232, 2.772e-5
0.233, 2.788e-5
0.234, 2.826e-5
0.235, 2.863e-5
0.236, 2.891e-5
0.237, 2.917e-5
0.238, 2.954e-5
0.239, 2.987e-5
0.240, 3.011e-5
0.241, 3.067e-5
0.242, 3.093e-5
0.243, 3.105e-5
0.244, 3.149e-5
0.245, 3.201e-5
0.246, 3.205e-5
0.247, 3.277e-5
0.248, 3.291e-5
0.249, 3.339e-5
0.250, 1.113e-5
0.249, -7.068e-6
0.248, -1.066e-5
0.247, -1.322e-5
0.246, -1.490e-5
0.245, -1.613e-5
0.244, -1.721e-5
0.243, -1.769e-5
0.242, -1.846e-5
0.241, -1.914e-5
0.240, -1.921e-5
0.239, -1.982e-5
0.238, -2.016e-5
0.237, -2.036e-5
0.236, -2.065e-5
0.235, -2.065e-5
0.234, -2.081e-5
0.233, -2.097e-5
0.232, -2.098e-5
0.231, -2.140e-5
0.230, -2.110e-5
0.229, -2.125e-5
0.228, -2.127e-5
0.227, -2.123e-5
0.226, -2.136e-5
0.225, -2.123e-5
0.224, -2.132e-5
0.223, -2.107e-5
0.222, -2.134e-5
0.221, -2.124e-5
0.220, -2.110e-5
0.219, -2.115e-5
0.218, -2.088e-5
0.217, -2.113e-5
0.216, -2.091e-5
0.215, -2.083e-5
0.214, -2.098e-5
0.213, -2.093e-5
0.212, -2.087e-5
0.211, -2.077e-5
0.210, -2.065e-5
0.209, -2.079e-5
0.208, -2.064e-5
0.207, -2.049e-5
0.206, -2.072e-5
0.205, -1.982e-5
0.204, -2.053e-5
0.203, -2.039e-5
0.202, -2.030e-5
0.201, -2.043e-5
0.200, -2.014e-5
0.199, -2.032e-5
0.198, -2.019e-5
0.197, -2.030e-5
0.196, -2.021e-5
0.195, -2.000e-5
0.194, -2.014e-5
0.193, -2.015e-5
0.192, -1.988e-5
0.191, -2.001e-5
0.190, -2.001e-5
0.189, -1.998e-5
0.188, -1.991e-5
0.187, -2.000e-5
0.186, -1.990e-5
0.185, -1.997e-5
0.184, -1.993e-5
0.183, -1.985e-5
0.182, -1.988e-5
0.181, -1.986e-5
0.180, -1.994e-5
0.179, -2.009e-5
0.178, -1.984e-5
0.177, -1.994e-5
0.176, -1.985e-5
0.175, -1.984e-5
0.174, -1.994e-5
0.173, -1.994e-5
0.172, -1.991e-5
0.171, -1.999e-5
0.170, -1.992e-5
0.169, -2.011e-5
0.168, -1.992e-5
0.167, -1.989e-5
0.166, -2.010e-5
0.165, -1.994e-5
0.164, -2.013e-5
0.163, -2.015e-5
0.162, -2.011e-5
0.161, -2.031e-5
0.160, -2.012e-5
0.159, -2.038e-5
0.158, -2.029e-5
0.157, -2.026e-5
0.156, -2.037e-5
0.155, -2.040e-5
0.154, -2.051e-5
0.153, -2.053e-5
0.152, -2.054e-5
0.151, -2.058e-5
0.150, -5.428e-6
0.151, 4.851e-6
0.152, 6.844e-6
0.153, 8.437e-6
0.154, 9.203e-6
0.155, 1.002e-5
0.156, 1.058e-5
0.157, 1.132e-5
0.158, 1.166e-5
0.159, 1.230e-5
0.160, 1.258e-5
0.161, 1.302e-5
0.162, 1.327e-5
0.163, 1.358e-5
0.164, 1.410e-5
0.165, 1.424e-5
0.166, 1.430e-5
0.167, 1.473e-5
0.168, 1.488e-5
0.169, 1.516e-5
0.170, 1.544e-5
0.171, 1.557e-5
0.172, 1.593e-5
0.173, 1.611e-5
0.174, 1.617e-5
0.175, 1.666e-5
0.176, 1.645e-5
0.177, 1.678e-5
0.178, 1.700e-5
0.179, 1.730e-5
0.180, 1.731e-5
0.181, 1.754e-5
0.182, 1.749e-5
0.183, 1.787e-5
0.184, 1.784e-5
0.185, 1.815e-5
0.186, 1.824e-5
0.187, 1.844e-5
0.188, 1.868e-5
0.189, 1.869e-5
0.190, 1.889e-5
0.191, 1.923e-5
0.192, 1.906e-5
0.193, 1.937e-5
0.194, 1.954e-5
0.195, 1.975e-5
0.196, 1.995e-5
0.197, 2.000e-5
0.198, 2.012e-5
0.199, 2.053e-5
0.200, 2.050e-5
0.201, 2.074e-5
0.202, 2.089e-5
0.203, 2.112e-5
0.204, 2.129e-5
0.205, 2.098e-5
0.206, 2.144e-5
0.207, 2.191e-5
0.208, 2.195e-5
0.209, 2.218e-5
0.210, 2.233e-5
0.211, 2.259e-5
0.212, 2.278e-5
0.213, 2.294e-5
0.214, 2.295e-5
0.215, 2.360e-5
0.216, 2.345e-5
0.217, 2.380e-5
0.218, 2.396e-5
0.219, 2.413e-5
0.220, 2.460e-5
0.221, 2.460e-5
0.222, 2.487e-5
0.223, 2.532e-5
0.224, 2.533e-5
0.225, 2.575e-5
0.226, 2.597e-5
0.227, 2.629e-5
0.228, 2.653e-5
0.229, 2.666e-5
0.230, 2.728e-5
0.231, 2.752e-5
0.232, 2.749e-5
0.233, 2.794e-5
0.234, 2.811e-5
0.235, 2.859e-5
0.236, 2.894e-5
0.237, 2.919e-5
0.238, 2.946e-5
0.239, 2.994e-5
0.240, 2.999e-5
0.241, 3.038e-5
0.242, 3.084e-5
0.243, 3.096e-5
0.244, 3.143e-5
0.245, 3.184e-5
0.246, 3.208e-5
0.247, 3.262e-5
0.248, 3.289e-5
0.249, 3.333e-5
0.250, 1.114e-5
0.249, -7.146e-6
0.248, -1.087e-5
0.247, -1.323e-5
0.246, -1.489e-5
0.245, -1.617e-5
0.244, -1.729e-5
0.243, -1.772e-5
0.242, -1.856e-5
0.241, -1.918e-5
0.240, -1.929e-5
0.239, -1.977e-5
0.238, -2.011e-5
0.237, -2.041e-5
0.236, -2.064e-5
0.235, -2.058e-5
0.234, -2.078e-5
0.233, -2.121e-5
0.232, -2.100e-5
0.231, -2.134e-5
0.230, -2.124e-5
0.229, -2.128e-5
0.228, -2.125e-5
0.227, -2.120e-5
0.226, -2.132e-5
0.225, -2.131e-5
0.224, -2.115e-5
0.223, -2.119e-5
0.222, -2.131e-5
0.221, -2.134e-5
0.220, -2.115e-5
0.219, -2.126e-5
0.218, -2.079e-5
0.217, -2.111e-5
0.216, -2.101e-5
0.215, -2.094e-5
0.214, -2.102e-5
0.213, -2.083e-5
0.212, -2.086e-5
0.211, -2.092e-5
0.210, -2.072e-5
0.209, -2.081e-5
0.208, -2.047e-5
0.207, -2.060e-5
0.206, -2.066e-5
0.205, -2.000e-5
0.204, -2.044e-5
0.203, -2.048e-5
0.202, -2.032e-5
0.201, -2.037e-5
0.200, -2.024e-5
0.199, -2.039e-5
0.198, -2.027e-5
0.197, -2.023e-5
0.196, -2.027e-5
0.195, -2.008e-5
0.194, -2.005e-5
0.193, -2.017e-5
0.192, -1.981e-5
0.191, -2.004e-5
0.190, -1.996e-5
0.189, -2.008e-5
0.188, -1.993e-5
0.187, -2.003e-5
0.186, -1.998e-5
0.185, -2.002e-5
0.184, -1.980e-5
0.183, -1.987e-5
0.182, -1.989e-5
0.181, -1.999e-5
0.180, -1.997e-5
0.179, -2.002e-5
0.178, -1.988e-5
0.177, -1.997e-5
0.176, -1.988e-5
0.175, -1.986e-5
0.174, -2.001e-5
0.173, -1.988e-5
0.172, -1.995e-5
0.171, -2.005e-5
0.170, -1.985e-5
0.169, -2.014e-5
0.168, -2.006e-5
0.167, -1.987e-5
0.166, -2.005e-5
0.165, -2.003e-5
0.164, -2.019e-5
0.163, -2.013e-5
0.162, -2.008e-5
0.161, -2.034e-5
0.160, -2.016e-5
0.159, -2.029e-5
0.158, -2.028e-5
0.157, -2.042e-5
0.156, -2.041e-5
0.155, -2.043e-5
0.154, -2.056e-5
0.153, -2.064e-5
0.152, -2.050e-5
0.151, -2.067e-5
0.150, -5.420e-6
0.151, 4.898e-6
0.152, 6.799e-6
0.153, 8.200e-6
0.154, 9.295e-6
0.155, 1.002e-5
0.156, 1.060e-5
0.157, 1.129e-5
0.158, 1.166e-5
0.159, 1.223e-5
0.160, 1.251e-5
0.161, 1.294e-5
0.162, 1.335e-5
0.163, 1.360e-5
0.164, 1.397e-5
0.165, 1.433e-5
0.166, 1.423e-5
0.167, 1.488e-5
0.168, 1.480e-5
0.169, 1.514e-5
0.170, 1.540e-5
0.171, 1.564e-5
0.172, 1.581e-5
0.173, 1.610e-5
0.174, 1.615e-5
0.175, 1.660e-5
0.176, 1.645e-5
0.177, 1.680e-5
0.178, 1.695e-5
0.179, 1.729e-5
0.180, 1.735e-5
0.181, 1.744e-5
0.182, 1.752e-5
0.183, 1.783e-5
0.184, 1.787e-5
0.185, 1.821e-5
0.186, 1.824e-5
0.187, 1.849e-5
0.188, 1.857e-5
0.189, 1.870e-5
0.190, 1.885e-5
0.191, 1.914e-5
0.192, 1.899e-5
0.193, 1.946e-5
0.194, 1.953e-5
0.195, 1.966e-5
0.196, 1.993e-5
0.197, 1.998e-5
0.198, 2.016e-5
0.199, 2.038e-5
0.200, 2.054e-5
0.201, 2.060e-5
0.202, 2.100e-5
0.203, 2.110e-5
0.204, 2.111e-5
0.205, 2.096e-5
0.206, 2.143e-5
0.207, 2.193e-5
0.208, 2.177e-5
0.209, 2.211e-5
0.210, 2.233e-5
0.211, 2.251e-5
0.212, 2.276e-5
0.213, 2.291e-5
0.214, 2.294e-5
0.215, 2.351e-5
0.216, 2.350e-5
0.217, 2.370e-5
0.218, 2.393e-5
0.219, 2.416e-5
0.220, 2.453e-5
0.221, 2.454e-5
0.222, 2.491e-5
0.223, 2.525e-5
0.224, 2.524e-5
0.225, 2.584e-5
0.226, 2.587e-5
0.227, 2.630e-5
0.228, 2.648e-5
0.229, 2.665e-5
0.230, 2.712e-5
0.231, 2.741e-5
0.232, 2.746e-5
0.233, 2.793e-5
0.234, 2.807e-5
0.235, 2.854e-5
0.236, 2.888e-5
0.237, 2.923e-5
0.238, 2.930e-5
0.239, 2.986e-5
0.240, 3.002e-5
0.241, 3.042e-5
0.242, 3.074e-5
0.243, 3.090e-5
0.244, 3.138e-5
0.245, 3.177e-5
0.246, 3.201e-5
0.247, 3.272e-5
0.248, 3.274e-5
0.249, 3.339e-5
0.250, 1.104e-5
0.249, -7.131e-6
0.248, -1.085e-5
0.247, -1.340e-5
0.246, -1.497e-5
0.245, -1.617e-5
0.244, -1.728e-5
0.243, -1.780e-5
0.242, -1.843e-5
0.241, -1.911e-5
0.240, -1.932e-5
0.239, -1.988e-5
0.238, -2.008e-5
0.237, -2.034e-5
0.236, -2.065e-5
0.235, -2.070e-5
0.234, -2.081e-5
0.233, -2.101e-5
0.232, -2.103e-5
0.231, -2.141e-5
0.230, -2.125e-5
0.229, -2.127e-5
0.228, -2.120e-5
0.227, -2.137e-5
0.226, -2.131e-5
0.225, -2.128e-5
0.224, -2.130e-5
0.223, -2.117e-5
0.222, -2.135e-5
0.221, -2.126e-5
0.220, -2.116e-5
0.219, -2.114e-5
0.218, -2.089e-5
0.217, -2.117e-5
0.216, -2.097e-5
0.215, -2.095e-5
0.214, -2.099e-5
0.213, -2.086e-5
0.212, -2.087e-5
0.211, -2.092e-5
0.210, -2.072e-5
0.209, -2.081e-5
0.208, -2.057e-5
0.207, -2.067e-5
0.206, -2.063e-5
0.205, -2.005e-5
0.204, -2.042e-5
0.203, -2.044e-5
0.202, -2.022e-5
0.201, -2.045e-5
0.200, -2.023e-5
0.199, -2.030e-5
0.198, -2.029e-5
0.197, -2.029e-5
0.196, -2.018e-5
0.195, -2.011e-5
0.194, -2.015e-5
0.193, -2.009e-5
0.192, -1.991e-5
0.191, -2.006e-5
0.190, -2.004e-5
0.189, -2.001e-5
0.188, -2.002e-5
0.187, -1.999e-5
0.186, -1.988e-5
0.185, -2.003e-5
0.184, -1.992e-5
0.183, -1.989e-5
0.182, -1.985e-5
0.181, -2.001e-5
0.180, -1.999e-5
0.179, -2.002e-5
0.178, -1.980e-5
0.177, -2.007e-5
0.176, -1.989e-5
0.175, -1.992e-5
0.174, -2.000e-5
0.173, -1.990e-5
0.172, -2.000e-5
0.171, -2.000e-5
0.170, -1.990e-5
0.169, -2.016e-5
0.168, -1.993e-5
0.167, -1.998e-5
0.166, -2.005e-5
0.165, -2.010e-5
0.164, -2.027e-5
0.163, -2.009e-5
0.162, -2.022e-5
0.161, -2.039e-5
0.160, -2.018e-5
0.159, -2.025e-5
0.158, -2.042e-5
0.157, -2.033e-5
0.156, -2.046e-5
0.155, -2.045e-5
0.154, -2.056e-5
0.153, -2.062e-5
0.152, -2.051e-5
0.151, -2.075e-5
0.150, -5.521e-6
0.151, 4.936e-6
0.152, 6.834e-6
0.153, 8.354e-6
0.154, 9.133e-6
0.155, 1.002e-5
0.156, 1.060e-5
0.157, 1.128e-5
0.158, 1.169e-5
0.159, 1.218e-5
0.160, 1.257e-5
0.161, 1.294e-5
0.162, 1.334e-5
0.163, 1.365e-5
0.164, 1.391e-5
0.165, 1.430e-5
0.166, 1.414e-5
0.167, 1.487e-5
0.168, 1.485e-5
0.169, 1.513e-5
0.170, 1.551e-5
0.171, 1.559e-5
0.172, 1.593e-5
0.173, 1.604e-5
0.174, 1.616e-5
0.175, 1.661e-5
0.176, 1.635e-5
0.177, 1.689e-5
0.178, 1.690e-5
0.179, 1.721e-5
0.180, 1.733e-5
0.181, 1.746e-5
0.182, 1.752e-5
0.183, 1.780e-5
0.184, 1.786e-5
0.185, 1.816e-5
0.186, 1.816e-5
0.187, 1.850e-5
0.188, 1.856e-5
0.189, 1.868e-5
0.190, 1.889e-5
0.191, 1.910e-5
0.192, 1.902e-5
0.193, 1.944e-5
0.194, 1.950e-5
0.195, 1.972e-5
0.196, 1.980e-5
0.197, 2.005e-5
0.198, 2.013e-5
0.199, 2.045e-5
0.200, 2.045e-5
0.201, 2.068e-5
0.202, 2.083e-5
0.203, 2.104e-5
0.204, 2.129e-5
0.205, 2.090e-5
0.206, 2.142e-5
0.207, 2.186e-5
0.208, 2.180e-5
0.209, 2.209e-5
0.210, 2.234e-5
0.211, 2.242e-5
0.212, 2.273e-5
0.213, 2.293e-5
0.214, 2.294e-5
0.215, 2.350e-5
0.216, 2.337e-5
0.217, 2.383e-5
0.218, 2.389e-5
0.219, 2.427e-5
0.220, 2.453e-5
0.221, 2.452e-5
0.222, 2.471e-5
0.223, 2.523e-5
0.224, 2.526e-5
0.225, 2.576e-5
0.226, 2.592e-5
0.227, 2.609e-5
0.228, 2.642e-5
0.229, 2.669e-5
0.230, 2.718e-5
0.231, 2.737e-5
0.232, 2.749e-5
0.233, 2.793e-5
0.234, 2.794e-5
0.235, 2.853e-5
0.236, 2.887e-5
0.237, 2.918e-5
0.238, 2.932e-5
0.239, 2.982e-5
0.240, 2.997e-5
0.241, 3.038e-5
0.242, 3.071e-5
0.243, 3.087e-5
0.244, 3.139e-5
0.245, 3.182e-5
0.246, 3.187e-5
0.247, 3.267e-5
0.248, 3.277e-5
0.249, 3.334e-5
0.250, 1.096e-5
0.249, -7.165e-6
0.248, -1.075e-5
0.247, -1.325e-5
0.246, -1.512e-5
0.245, -1.632e-5
0.244, -1.727e-5
0.243, -1.775e-5
0.242, -1.852e-5
0.241, -1.926e-5
0.240, -1.933e-5
0.239, -1.987e-5
0.238, -2.015e-5
0.237, -2.029e-5
0.236, -2.069e-5
0.235, -2.068e-5
0.234, -2.084e-5
0.233, -2.112e-5
0.232, -2.098e-5
0.231, -2.142e-5
0.230, -2.117e-5
0.229, -2.138e-5
0.228, -2.125e-5
0.227, -2.123e-5
0.226, -2.137e-5
0.225, -2.139e-5
0.224, -2.131e-5
0.223, -2.116e-5
0.222, -2.142e-5
0.221, -2.118e-5
0.220, -2.124e-5
0.219, -2.116e-5
0.218, -2.085e-5
0.217, -2.110e-5
0.216, -2.098e-5
0.215, -2.092e-5
0.214, -2.117e-5
0.213, -2.085e-5
0.212, -2.093e-5
0.211, -2.078e-5
0.210, -2.068e-5
0.209, -2.092e-5
0.208, -2.056e-5
0.207, -2.062e-5
0.206, -2.069e-5
0.205, -1.996e-5
0.204, -2.054e-5
0.203, -2.034e-5
0.202, -2.035e-5
0.201, -2.043e-5
0.200, -2.023e-5
0.199, -2.027e-5
0.198, -2.030e-5
0.197, -2.025e-5
0.196, -2.030e-5
0.195, -2.009e-5
0.194, -2.014e-5
0.193, -2.010e-5
0.192, -1.989e-5
0.191, -2.009e-5
0.190, -1.994e-5
0.189, -2.008e-5
0.188, -2.003e-5
0.187, -1.999e-5
0.186, -1.997e-5
0.185, -2.001e-5
0.184, -1.989e-5
0.183, -1.985e-5
0.182, -2.000e-5
0.181, -1.992e-5
0.180, -2.000e-5
0.179, -2.009e-5
0.178, -1.984e-5
0.177, -2.001e-5
0.176, -1.992e-5
0.175, -1.991e-5
0.174, -1.996e-5
0.173, -2.003e-5
0.172, -2.002e-5
0.171, -1.998e-5
0.170, -1.997e-5
0.169, -2.011e-5
0.168, -1.998e-5
0.167, -1.998e-5
0.166, -2.013e-5
0.165, -2.007e-5
0.164, -2.026e-5
0.163, -2.009e-5
0.162, -2.008e-5
0.161, -2.036e-5
0.160, -2.028e-5
0.159, -2.029e-5
0.158, -2.036e-5
0.157, -2.041e-5
0.156, -2.039e-5
0.155, -2.060e-5
0.154, -2.058e-5
0.153, -2.060e-5
0.152, -2.056e-5
0.151, -2.071e-5
0.150, -5.489e-6
0.151, 4.880e-6
0.152, 6.934e-6
0.153, 8.238e-6
0.154, 9.165e-6
0.155, 1.005e-5
0.156, 1.058e-5
0.157, 1.127e-5
0.158, 1.174e-5
0.159, 1.221e-5
0.160, 1.253e-5
0.161, 1.292e-5
0.162, 1.332e-5
0.163, 1.356e-5
0.164, 1.396e-5
0.165, 1.422e-5
0.166, 1.425e-5
0.167, 1.480e-5
0.168, 1.480e-5
0.169, 1.517e-5
0.170, 1.538e-5
0.171, 1.562e-5
0.172, 1.588e-5
0.173, 1.599e-5
0.174, 1.616e-5
0.175, 1.656e-5
0.176, 1.645e-5
0.177, 1.686e-5
0.178, 1.691e-5
0.179, 1.728e-5
0.180, 1.731e-5
0.181, 1.735e-5
0.182, 1.760e-5
0.183, 1.782e-5
0.184, 1.778e-5
0.185, 1.815e-5
0.186, 1.819e-5
0.187, 1.846e-5
0.188, 1.862e-5
0.189, 1.875e-5
0.190, 1.886e-5
0.191, 1.912e-5
0.192, 1.895e-5
0.193, 1.935e-5
0.194, 1.949e-5
0.195, 1.972e-5
0.196, 1.982e-5
0.197, 2.008e-5
0.198, 2.011e-5
0.199, 2.042e-5
0.200, 2.043e-5
0.201, 2.064e-5
0.202, 2.087e-5
0.203, 2.104e-5
0.204, 2.117e-5
0.205, 2.088e-5
0.206, 2.135e-5
0.207, 2.188e-5
0.208, 2.180e-5
0.209, 2.201e-5
0.210, 2.231e-5
0.211, 2.252e-5
0.212, 2.271e-5
0.213, 2.292e-5
0.214, 2.285e-5
0.215, 2.360e-5
0.216, 2.330e-5
0.217, 2.374e-5
0.218, 2.392e-5
0.219, 2.418e-5
0.220, 2.448e-5
0.221, 2.455e-5
0.222, 2.479e-5
0.223, 2.522e-5
0.224, 2.528e-5
0.225, 2.567e-5
0.226, 2.593e-5
0.227, 2.607e-5
0.228, 2.642e-5
0.229, 2.672e-5
0.230, 2.693e-5
0.231, 2.747e-5
0.232, 2.749e-5
0.233, 2.777e-5
0.234, 2.813e-5
0.235, 2.842e-5
0.236, 2.870e-5
0.237, 2.901e-5
0.238, 2.939e-5
0.239, 2.989e-5
0.240, 2.999e-5
0.241, 3.020e-5
0.242, 3.082e-5
0.243, 3.087e-5
0.244, 3.148e-5
0.245, 3.166e-5
0.246, 3.189e-5
0.247, 3.266e-5
0.248, 3.252e-5
0.249, 3.326e-5
0.250, 1.097e-5
0.249, -7.129e-6
0.248, -1.076e-5
0.247, -1.343e-5
0.246, -1.513e-5
0.245, -1.613e-5
0.244, -1.731e-5
0.243, -1.770e-5
0.242, -1.856e-5
0.241, -1.922e-5
0.240, -1.931e-5
0.239, -1.980e-5
0.238, -2.003e-5
0.237, -2.038e-5
0.236, -2.067e-5
0.235, -2.073e-5
0.234, -2.076e-5
0.233, -2.114e-5
0.232, -2.101e-5
0.231, -2.134e-5
0.230, -2.135e-5
0.229, -2.137e-5
0.228, -2.125e-5
0.227, -2.126e-5
0.226, -2.130e-5
0.225, -2.142e-5
0.224, -2.133e-5
0.223, -2.129e-5
0.222, -2.127e-5
0.221, -2.121e-5
0.220, -2.119e-5
0.219, -2.123e-5
0.218, -2.088e-5
0.217, -2.119e-5
0.216, -2.096e-5
0.215, -2.101e-5
0.214, -2.091e-5
0.213, -2.091e-5
0.212, -2.087e-5
0.211, -2.089e-5
0.210, -2.070e-5
0.209, -2.089e-5
0.208, -2.064e-5
0.207, -2.060e-5
0.206, -2.062e-5
0.205, -2.003e-5
0.204, -2.058e-5
0.203, -2.036e-5
0.202, -2.039e-5
0.201, -2.043e-5
0.200, -2.022e-5
0.199, -2.033e-5
0.198, -2.025e-5
0.197, -2.024e-5
0.196, -2.014e-5
0.195, -2.008e-5
0.194, -2.017e-5
0.193, -2.012e-5
0.192, -1.980e-5
0.191, -2.012e-5
0.190, -2.014e-5
0.189, -1.992e-5
0.188, -1.999e-5
0.187, -1.999e-5
0.186, -1.996e-5
0.185, -2.010e-5
0.184, -1.989e-5
0.183, -1.990e-5
0.182, -1.998e-5
0.181, -1.992e-5
0.180, -2.001e-5
0.179, -2.014e-5
0.178, -1.976e-5
0.177, -2.018e-5
0.176, -1.981e-5
0.175, -2.000e-5
0.174, -2.003e-5
0.173, -2.001e-5
0.172, -1.993e-5
0.171, -2.013e-5
0.170, -1.993e-5
0.169, -2.011e-5
0.168, -1.993e-5
0.167, -2.001e-5
0.166, -2.012e-5
0.165, -2.010e-5
0.164, -2.024e-5
0.163, -2.021e-5
0.162, -2.012e-5
0.161, -2.035e-5
0.160, -2.024e-5
0.159, -2.036e-5
0.158, -2.036e-5
0.157, -2.032e-5
0.156, -2.048e-5
0.155, -2.058e-5
0.154, -2.057e-5
0.153, -2.067e-5
0.152, -2.059e-5
0.151, -2.068e-5
0.150, -5.576e-6
0.151, 4.989e-6
0.152, 6.826e-6
0.153, 8.265e-6
0.154, 9.241e-6
0.155, 1.005e-5
0.156, 1.058e-5
0.157, 1.116e-5
0.158, 1.166e-5
0.159, 1.235e-5
0.160, 1.252e-5
0.161, 1.287e-5
0.162, 1.335e-5
0.163, 1.359e-5
0.164, 1.390e-5
0.165, 1.427e-5
0.166, 1.425e-5
0.167, 1.476e-5
0.168, 1.486e-5
0.169, 1.521e-5
0.170, 1.543e-5
0.171, 1.567e-5
0.172, 1.585e-5
0.173, 1.613e-5
0.174, 1.606e-5
0.175, 1.657e-5
0.176, 1.640e-5
0.177, 1.678e-5
0.178, 1.694e-5
0.179, 1.728e-5
0.180, 1.725e-5
0.181, 1.741e-5
0.182, 1.752e-5
0.183, 1.783e-5
0.184, 1.784e-5
0.185, 1.817e-5
0.186, 1.819e-5
0.187, 1.834e-5
0.188, 1.869e-5
0.189, 1.865e-5
0.190, 1.881e-5
0.191, 1.921e-5
0.192, 1.892e-5
0.193, 1.940e-5
0.194, 1.952e-5
0.195, 1.963e-5
0.196, 1.972e-5
0.197, 2.000e-5
0.198, 2.006e-5
0.199, 2.042e-5
0.200, 2.042e-5
0.201, 2.074e-5
0.202, 2.077e-5
0.203, 2.100e-5
0.204, 2.125e-5
0.205, 2.089e-5
0.206, 2.135e-5
0.207, 2.191e-5
0.208, 2.179e-5
0.209, 2.211e-5
0.210, 2.226e-5
0.211, 2.245e-5
0.212, 2.268e-5
0.213, 2.288e-5
0.214, 2.302e-5
0.215, 2.342e-5
0.216, 2.336e-5
0.217, 2.369e-5
0.218, 2.389e-5
0.219, 2.409e-5
0.220, 2.450e-5
0.221, 2.454e-5
0.222, 2.480e-5
0.223, 2.524e-5
0.224, 2.532e-5
0.225, 2.568e-5
0.226, 2.572e-5
0.227, 2.610e-5
0.228, 2.645e-5
0.229, 2.681e-5
0.230, 2.683e-5
0.231, 2.741e-5
0.232, 2.745e-5
0.233, 2.769e-5
0.234, 2.811e-5
0.235, 2.846e-5
0.236, 2.872e-5
0.237, 2.909e-5
0.238, 2.930e-5
0.239, 2.974e-5
0.240, 2.990e-5
0.241, 3.045e-5
0.242, 3.068e-5
0.243, 3.079e-5
0.244, 3.132e-5
0.245, 3.170e-5
0.246, 3.187e-5
0.247, 3.255e-5
0.248, 3.273e-5
0.249, 3.317e-5
0.250, 1.090e-5
0.249, -7.254e-6
0.248, -1.077e-5
0.247, -1.334e-5
0.246, -1.502e-5
0.245, -1.627e-5
0.244, -1.714e-5
0.243, -1.762e-5
0.242, -1.856e-5
0.241, -1.927e-5
0.240, -1.943e-5
0.239, -1.985e-5
0.238, -2.013e-5
0.237, -2.048e-5
0.236, -2.063e-5
0.235, -2.072e-5
0.234, -2.090e-5
0.233, -2.107e-5
0.232, -2.102e-5
0.231, -2.127e-5
0.230, -2.130e-5
0.229, -2.128e-5
0.228, -2.136e-5
0.227, -2.129e-5
0.226, -2.120e-5
0.225, -2.143e-5
0.224, -2.134e-5
0.223, -2.115e-5
0.222, -2.135e-5
0.221, -2.108e-5
0.220, -2.118e-5
0.219, -2.123e-5
0.218, -2.086e-5
0.217, -2.111e-5
0.216, -2.103e-5
0.215, -2.090e-5
0.214, -2.105e-5
0.213, -2.088e-5
0.212, -2.098e-5
0.211, -2.072e-5
0.210, -2.071e-5
0.209, -2.096e-5
0.208, -2.050e-5
0.207, -2.065e-5
0.206, -2.060e-5
0.205, -2.009e-5
0.204, -2.041e-5
0.203, -2.043e-5
0.202, -2.032e-5
0.201, -2.046e-5
0.200, -2.019e-5
0.199, -2.043e-5
0.198, -2.031e-5
0.197, -2.025e-5
0.196, -2.013e-5
0.195, -2.007e-5
0.194, -2.014e-5
0.193, -2.022e-5
0.192, -1.987e-5
0.191, -2.001e-5
0.190, -2.008e-5
0.189, -2.005e-5
0.188, -2.002e-5
0.187, -2.007e-5
0.186, -2.000e-5
0.185, -2.007e-5
0.184, -1.993e-5
0.183, -1.981e-5
0.182, -2.002e-5
0.181, -2.002e-5
0.180, -2.002e-5
0.179, -2.012e-5
0.178, -1.984e-5
0.177, -1.999e-5
0.176, -1.980e-5
0.175, -1.992e-5
0.174, -2.006e-5
0.173, -1.995e-5
0.172, -2.000e-5
0.171, -2.000e-5
0.170, -1.993e-5
0.169, -2.027e-5
0.168, -1.998e-5
0.167, -2.001e-5
0.166, -1.996e-5
0.165, -2.021e-5
0.164, -2.021e-5
0.163, -2.013e-5
0.162, -2.015e-5
0.161, -2.039e-5
0.160, -2.024e-5
0.159, -2.036e-5
0.158, -2.038e-5
0.157, -2.035e-5
0.156, -2.045e-5
0.155, -2.056e-5
0.154, -2.063e-5
0.153, -2.057e-5
0.152, -2.070e-5
0.151, -2.065e-5
0.150, -5.483e-6
0.151, 4.843e-6
0.152, 6.799e-6
0.153, 8.287e-6
0.154, 9.170e-6
0.155, 1.000e-5
0.156, 1.070e-5
0.157, 1.123e-5
0.158, 1.168e-5
0.159, 1.226e-5
0.160, 1.244e-5
0.161, 1.297e-5
0.162, 1.316e-5
0.163, 1.366e-5
0.164, 1.389e-5
0.165, 1.425e-5
0.166, 1.419e-5
0.167, 1.494e-5
0.168, 1.480e-5
0.169, 1.523e-5
0.170, 1.528e-5
0.171, 1.566e-5
0.172, 1.587e-5
0.173, 1.595e-5
0.174, 1.618e-5
0.175, 1.649e-5
0.176, 1.651e-5
0.177, 1.681e-5
0.178, 1.685e-5
0.179, 1.730e-5
0.180, 1.730e-5
0.181, 1.734e-5
0.182, 1.757e-5
0.183, 1.779e-5
0.184, 1.788e-5
0.185, 1.809e-5
0.186, 1.827e-5
0.187, 1.844e-5
0.188, 1.851e-5
0.189, 1.873e-5
0.190, 1.879e-5
0.191, 1.919e-5
0.192, 1.899e-5
0.193, 1.925e-5
0.194, 1.943e-5
0.195, 1.971e-5
0.196, 1.981e-5
0.197, 2.004e-5
0.198, 2.003e-5
0.199, 2.044e-5
0.200, 2.041e-5
0.201, 2.063e-5
0.202, 2.083e-5
0.203, 2.100e-5
0.204, 2.127e-5
0.205, 2.091e-5
0.206, 2.141e-5
0.207, 2.180e-5
0.208, 2.179e-5
0.209, 2.213e-5
0.210, 2.220e-5
0.211, 2.236e-5
0.212, 2.279e-5
0.213, 2.277e-5
0.214, 2.290e-5
0.215, 2.351e-5
0.216, 2.329e-5
0.217, 2.376e-5
0.218, 2.380e-5
0.219, 2.424e-5
0.220, 2.438e-5
0.221, 2.456e-5
0.222, 2.479e-5
0.223, 2.522e-5
0.224, 2.520e-5
0.225, 2.572e-5
0.226, 2.582e-5
0.227, 2.619e-5
0.228, 2.633e-5
0.229, 2.659e-5
0.230, 2.703e-5
0.231, 2.736e-5
0.232, 2.749e-5
0.233, 2.777e-5
0.234, 2.804e-5
0.235, 2.837e-5
0.236, 2.868e-5
0.237, 2.913e-5
0.238, 2.914e-5
0.239, 2.991e-5
0.240, 2.986e-5
0.241, 3.040e-5
0.242, 3.069e-5
0.243, 3.063e-5
0.244, 3.142e-5
0.245, 3.164e-5
0.246, 3.179e-5
0.247, 3.257e-5
0.248, 3.268e-5
0.249, 3.323e-5
0.250, 1.087e-5
0.249, -7.187e-6
0.248, -1.081e-5
0.247, -1.342e-5
0.246, -1.501e-5
0.245, -1.630e-5
0.244, -1.726e-5
0.243, -1.778e-5
0.242, -1.853e-5
0.241, -1.912e-5
0.240, -1.940e-5
0.239, -1.996e-5
0.238, -2.007e-5
0.237, -2.045e-5
0.236, -2.061e-5
0.235, -2.081e-5
0.234, -2.083e-5
0.233, -2.106e-5
0.232, -2.102e-5
0.231, -2.131e-5
0.230, -2.134e-5
0.229, -2.138e-5
0.228, -2.126e-5
0.227, -2.129e-5
0.226, -2.120e-5
0.225, -2.147e-5
0.224, -2.123e-5
0.223, -2.119e-5
0.222, -2.134e-5
0.221, -2.116e-5
0.220, -2.128e-5
0.219, -2.113e-5
0.218, -2.093e-5
0.217, -2.112e-5
0.216, -2.099e-5
0.215, -2.102e-5
0.214, -2.100e-5
0.213, -2.089e-5
0.212, -2.088e-5
0.211, -2.084e-5
0.210, -2.068e-5
0.209, -2.087e-5
0.208, -2.060e-5
0.207, -2.068e-5
0.206, -2.051e-5
0.205, -2.013e-5
0.204, -2.049e-5
0.203, -2.039e-5
0.202, -2.033e-5
0.201, -2.042e-5
0.200, -2.031e-5
0.199, -2.032e-5
0.198, -2.011e-5
0.197, -2.034e-5
0.196, -2.023e-5
0.195, -2.010e-5
0.194, -2.008e-5
0.193, -2.017e-5
0.192, -1.995e-5
0.191, -2.003e-5
0.190, -2.008e-5
0.189, -2.000e-5
0.188, -2.000e-5
0.187, -1.996e-5
0.186, -1.993e-5
0.185, -2.005e-5
0.184, -2.003e-5
0.183, -1.986e-5
0.182, -1.991e-5
0.181, -1.989e-5
0.180, -2.000e-5
0.179, -2.009e-5
0.178, -1.985e-5
0.177, -2.008e-5
0.176, -1.988e-5
0.175, -1.997e-5
0.174, -2.004e-5
0.173, -1.996e-5
0.172, -2.005e-5
0.171, -1.995e-5
0.170, -2.005e-5
0.169, -2.009e-5
0.168, -1.998e-5
0.167, -2.008e-5
0.166, -2.011e-5
0.165, -2.013e-5
0.164, -2.014e-5
0.163, -2.020e-5
0.162, -2.018e-5
0.161, -2.036e-5
0.160, -2.027e-5
0.159, -2.041e-5
0.158, -2.034e-5
0.157, -2.041e-5
0.156, -2.053e-5
0.155, -2.044e-5
0.154, -2.071e-5
0.153, -2.073e-5
0.152, -2.055e-5
0.151, -2.071e-5
