Sept. 9, 2026   18:12:16
Cyclic Voltammetry
File: d:\desktop\sample\ni foil\ni_foil_cv 80 mv.bin
Data Source:  Experiment
Instrument Model:  CHI660D
Header: 
Note: 

Init E (V) = 0.15
High E (V) = 0.25
Low E (V) = 0.15
Init P/N = P
Scan Rate (V/s) = 0.08
Segment = 20
Sample Interval (V) = 0.001
Quiet Time (sec) = 10
Sensitivity (A/V) = 0.001

Results:

Channel 1:
Segment 1:

Segment 2:

Segment 3:

Segment 4:

Segment 5:

Segment 6:

Segment 7:

Segment 8:

Segment 9:

Segment 10:

Segment 11:

Segment 12:

Segment 13:

Segment 14:

Segment 15:

Segment 16:

Segment 17:

Segment 18:

Segment 19:

Segment 20:

Potential/V, Current/A

0.150, 6.772e-6
0.151, 1.068e-5
0.152, 1.134e-5
0.153, 1.207e-5
0.154, 1.226e-5
0.155, 1.268e-5
0.156, 1.295e-5
0.157, 1.316e-5
0.158, 1.343e-5
0.159, 1.377e-5
0.160, 1.374e-5
0.161, 1.409e-5
0.162, 1.412e-5
0.163, 1.437e-5
0.164, 1.453e-5
0.165, 1.468e-5
0.166, 1.455e-5
0.167, 1.498e-5
0.168, 1.498e-5
0.169, 1.525e-5
0.170, 1.527e-5
0.171, 1.542e-5
0.172, 1.559e-5
0.173, 1.579e-5
0.174, 1.561e-5
0.175, 1.608e-5
0.176, 1.596e-5
0.177, 1.610e-5
0.178, 1.624e-5
0.179, 1.649e-5
0.180, 1.660e-5
0.181, 1.665e-5
0.182, 1.658e-5
0.183, 1.693e-5
0.184, 1.686e-5
0.185, 1.711e-5
0.186, 1.704e-5
0.187, 1.727e-5
0.188, 1.738e-5
0.189, 1.756e-5
0.190, 1.746e-5
0.191, 1.782e-5
0.192, 1.766e-5
0.193, 1.794e-5
0.194, 1.804e-5
0.195, 1.828e-5
0.196, 1.844e-5
0.197, 1.847e-5
0.198, 1.846e-5
0.199, 1.898e-5
0.200, 1.872e-5
0.201, 1.903e-5
0.202, 1.907e-5
0.203, 1.937e-5
0.204, 1.929e-5
0.205, 1.919e-5
0.206, 1.959e-5
0.207, 1.987e-5
0.208, 1.994e-5
0.209, 2.018e-5
0.210, 2.030e-5
0.211, 2.051e-5
0.212, 2.064e-5
0.213, 2.076e-5
0.214, 2.086e-5
0.215, 2.121e-5
0.216, 2.118e-5
0.217, 2.136e-5
0.218, 2.156e-5
0.219, 2.183e-5
0.220, 2.198e-5
0.221, 2.218e-5
0.222, 2.233e-5
0.223, 2.266e-5
0.224, 2.266e-5
0.225, 2.301e-5
0.226, 2.317e-5
0.227, 2.330e-5
0.228, 2.370e-5
0.229, 2.393e-5
0.230, 2.408e-5
0.231, 2.447e-5
0.232, 2.439e-5
0.233, 2.472e-5
0.234, 2.490e-5
0.235, 2.523e-5
0.236, 2.550e-5
0.237, 2.576e-5
0.238, 2.588e-5
0.239, 2.631e-5
0.240, 2.638e-5
0.241, 2.682e-5
0.242, 2.703e-5
0.243, 2.717e-5
0.244, 2.758e-5
0.245, 2.784e-5
0.246, 2.789e-5
0.247, 2.868e-5
0.248, 2.867e-5
0.249, 2.930e-5
0.250, 8.663e-6
0.249, -4.897e-6
0.248, -7.937e-6
0.247, -9.914e-6
0.246, -1.148e-5
0.245, -1.235e-5
0.244, -1.312e-5
0.243, -1.365e-5
0.242, -1.439e-5
0.241, -1.491e-5
0.240, -1.509e-5
0.239, -1.533e-5
0.238, -1.574e-5
0.237, -1.596e-5
0.236, -1.614e-5
0.235, -1.620e-5
0.234, -1.633e-5
0.233, -1.659e-5
0.232, -1.644e-5
0.231, -1.681e-5
0.230, -1.679e-5
0.229, -1.682e-5
0.228, -1.681e-5
0.227, -1.677e-5
0.226, -1.675e-5
0.225, -1.699e-5
0.224, -1.681e-5
0.223, -1.681e-5
0.222, -1.692e-5
0.221, -1.678e-5
0.220, -1.682e-5
0.219, -1.675e-5
0.218, -1.666e-5
0.217, -1.686e-5
0.216, -1.657e-5
0.215, -1.671e-5
0.214, -1.671e-5
0.213, -1.661e-5
0.212, -1.669e-5
0.211, -1.655e-5
0.210, -1.655e-5
0.209, -1.669e-5
0.208, -1.636e-5
0.207, -1.641e-5
0.206, -1.651e-5
0.205, -1.598e-5
0.204, -1.629e-5
0.203, -1.634e-5
0.202, -1.625e-5
0.201, -1.635e-5
0.200, -1.619e-5
0.199, -1.630e-5
0.198, -1.624e-5
0.197, -1.612e-5
0.196, -1.621e-5
0.195, -1.619e-5
0.194, -1.611e-5
0.193, -1.620e-5
0.192, -1.589e-5
0.191, -1.601e-5
0.190, -1.609e-5
0.189, -1.596e-5
0.188, -1.611e-5
0.187, -1.601e-5
0.186, -1.612e-5
0.185, -1.600e-5
0.184, -1.601e-5
0.183, -1.595e-5
0.182, -1.608e-5
0.181, -1.592e-5
0.180, -1.604e-5
0.179, -1.610e-5
0.178, -1.605e-5
0.177, -1.600e-5
0.176, -1.603e-5
0.175, -1.596e-5
0.174, -1.613e-5
0.173, -1.608e-5
0.172, -1.609e-5
0.171, -1.602e-5
0.170, -1.602e-5
0.169, -1.617e-5
0.168, -1.606e-5
0.167, -1.596e-5
0.166, -1.626e-5
0.165, -1.605e-5
0.164, -1.619e-5
0.163, -1.616e-5
0.162, -1.625e-5
0.161, -1.641e-5
0.160, -1.623e-5
0.159, -1.624e-5
0.158, -1.649e-5
0.157, -1.630e-5
0.156, -1.649e-5
0.155, -1.647e-5
0.154, -1.659e-5
0.153, -1.653e-5
0.152, -1.657e-5
0.151, -1.656e-5
0.150, -3.217e-6
0.151, 4.578e-6
0.152, 5.987e-6
0.153, 7.228e-6
0.154, 7.888e-6
0.155, 8.620e-6
0.156, 9.117e-6
0.157, 9.608e-6
0.158, 9.864e-6
0.159, 1.057e-5
0.160, 1.057e-5
0.161, 1.110e-5
0.162, 1.120e-5
0.163, 1.156e-5
0.164, 1.185e-5
0.165, 1.208e-5
0.166, 1.206e-5
0.167, 1.255e-5
0.168, 1.252e-5
0.169, 1.279e-5
0.170, 1.301e-5
0.171, 1.320e-5
0.172, 1.332e-5
0.173, 1.365e-5
0.174, 1.352e-5
0.175, 1.394e-5
0.176, 1.396e-5
0.177, 1.416e-5
0.178, 1.426e-5
0.179, 1.455e-5
0.180, 1.457e-5
0.181, 1.471e-5
0.182, 1.469e-5
0.183, 1.507e-5
0.184, 1.503e-5
0.185, 1.523e-5
0.186, 1.528e-5
0.187, 1.551e-5
0.188, 1.571e-5
0.189, 1.575e-5
0.190, 1.577e-5
0.191, 1.613e-5
0.192, 1.594e-5
0.193, 1.634e-5
0.194, 1.634e-5
0.195, 1.659e-5
0.196, 1.672e-5
0.197, 1.684e-5
0.198, 1.689e-5
0.199, 1.716e-5
0.200, 1.723e-5
0.201, 1.734e-5
0.202, 1.751e-5
0.203, 1.772e-5
0.204, 1.781e-5
0.205, 1.752e-5
0.206, 1.791e-5
0.207, 1.837e-5
0.208, 1.833e-5
0.209, 1.861e-5
0.210, 1.868e-5
0.211, 1.900e-5
0.212, 1.909e-5
0.213, 1.923e-5
0.214, 1.928e-5
0.215, 1.963e-5
0.216, 1.977e-5
0.217, 1.985e-5
0.218, 2.002e-5
0.219, 2.037e-5
0.220, 2.044e-5
0.221, 2.066e-5
0.222, 2.079e-5
0.223, 2.130e-5
0.224, 2.125e-5
0.225, 2.160e-5
0.226, 2.172e-5
0.227, 2.196e-5
0.228, 2.218e-5
0.229, 2.232e-5
0.230, 2.266e-5
0.231, 2.294e-5
0.232, 2.303e-5
0.233, 2.345e-5
0.234, 2.352e-5
0.235, 2.385e-5
0.236, 2.411e-5
0.237, 2.446e-5
0.238, 2.442e-5
0.239, 2.504e-5
0.240, 2.504e-5
0.241, 2.543e-5
0.242, 2.562e-5
0.243, 2.588e-5
0.244, 2.631e-5
0.245, 2.659e-5
0.246, 2.677e-5
0.247, 2.737e-5
0.248, 2.737e-5
0.249, 2.787e-5
0.250, 7.576e-6
0.249, -6.018e-6
0.248, -8.906e-6
0.247, -1.116e-5
0.246, -1.240e-5
0.245, -1.324e-5
0.244, -1.406e-5
0.243, -1.449e-5
0.242, -1.525e-5
0.241, -1.558e-5
0.240, -1.593e-5
0.239, -1.614e-5
0.238, -1.646e-5
0.237, -1.660e-5
0.236, -1.671e-5
0.235, -1.696e-5
0.234, -1.703e-5
0.233, -1.713e-5
0.232, -1.709e-5
0.231, -1.731e-5
0.230, -1.738e-5
0.229, -1.722e-5
0.228, -1.725e-5
0.227, -1.724e-5
0.226, -1.727e-5
0.225, -1.733e-5
0.224, -1.727e-5
0.223, -1.732e-5
0.222, -1.724e-5
0.221, -1.727e-5
0.220, -1.719e-5
0.219, -1.708e-5
0.218, -1.697e-5
0.217, -1.710e-5
0.216, -1.709e-5
0.215, -1.702e-5
0.214, -1.708e-5
0.213, -1.691e-5
0.212, -1.698e-5
0.211, -1.689e-5
0.210, -1.686e-5
0.209, -1.694e-5
0.208, -1.672e-5
0.207, -1.675e-5
0.206, -1.683e-5
0.205, -1.629e-5
0.204, -1.660e-5
0.203, -1.659e-5
0.202, -1.659e-5
0.201, -1.654e-5
0.200, -1.654e-5
0.199, -1.645e-5
0.198, -1.653e-5
0.197, -1.657e-5
0.196, -1.633e-5
0.195, -1.641e-5
0.194, -1.637e-5
0.193, -1.644e-5
0.192, -1.619e-5
0.191, -1.621e-5
0.190, -1.647e-5
0.189, -1.626e-5
0.188, -1.629e-5
0.187, -1.626e-5
0.186, -1.628e-5
0.185, -1.626e-5
0.184, -1.623e-5
0.183, -1.619e-5
0.182, -1.629e-5
0.181, -1.625e-5
0.180, -1.632e-5
0.179, -1.634e-5
0.178, -1.620e-5
0.177, -1.633e-5
0.176, -1.616e-5
0.175, -1.627e-5
0.174, -1.640e-5
0.173, -1.624e-5
0.172, -1.627e-5
0.171, -1.631e-5
0.170, -1.619e-5
0.169, -1.638e-5
0.168, -1.631e-5
0.167, -1.624e-5
0.166, -1.648e-5
0.165, -1.630e-5
0.164, -1.645e-5
0.163, -1.637e-5
0.162, -1.651e-5
0.161, -1.662e-5
0.160, -1.650e-5
0.159, -1.651e-5
0.158, -1.660e-5
0.157, -1.663e-5
0.156, -1.669e-5
0.155, -1.673e-5
0.154, -1.675e-5
0.153, -1.683e-5
0.152, -1.680e-5
0.151, -1.679e-5
0.150, -3.500e-6
0.151, 4.359e-6
0.152, 5.871e-6
0.153, 7.018e-6
0.154, 7.701e-6
0.155, 8.501e-6
0.156, 8.971e-6
0.157, 9.403e-6
0.158, 9.794e-6
0.159, 1.031e-5
0.160, 1.048e-5
0.161, 1.090e-5
0.162, 1.122e-5
0.163, 1.135e-5
0.164, 1.165e-5
0.165, 1.200e-5
0.166, 1.190e-5
0.167, 1.242e-5
0.168, 1.242e-5
0.169, 1.271e-5
0.170, 1.276e-5
0.171, 1.307e-5
0.172, 1.328e-5
0.173, 1.341e-5
0.174, 1.344e-5
0.175, 1.374e-5
0.176, 1.377e-5
0.177, 1.405e-5
0.178, 1.411e-5
0.179, 1.449e-5
0.180, 1.431e-5
0.181, 1.461e-5
0.182, 1.459e-5
0.183, 1.505e-5
0.184, 1.487e-5
0.185, 1.517e-5
0.186, 1.519e-5
0.187, 1.542e-5
0.188, 1.543e-5
0.189, 1.568e-5
0.190, 1.555e-5
0.191, 1.608e-5
0.192, 1.578e-5
0.193, 1.620e-5
0.194, 1.623e-5
0.195, 1.645e-5
0.196, 1.653e-5
0.197, 1.673e-5
0.198, 1.672e-5
0.199, 1.711e-5
0.200, 1.704e-5
0.201, 1.721e-5
0.202, 1.729e-5
0.203, 1.757e-5
0.204, 1.773e-5
0.205, 1.745e-5
0.206, 1.782e-5
0.207, 1.815e-5
0.208, 1.811e-5
0.209, 1.847e-5
0.210, 1.854e-5
0.211, 1.881e-5
0.212, 1.894e-5
0.213, 1.908e-5
0.214, 1.915e-5
0.215, 1.952e-5
0.216, 1.956e-5
0.217, 1.969e-5
0.218, 1.993e-5
0.219, 2.016e-5
0.220, 2.029e-5
0.221, 2.054e-5
0.222, 2.057e-5
0.223, 2.106e-5
0.224, 2.101e-5
0.225, 2.141e-5
0.226, 2.152e-5
0.227, 2.177e-5
0.228, 2.199e-5
0.229, 2.220e-5
0.230, 2.245e-5
0.231, 2.283e-5
0.232, 2.291e-5
0.233, 2.311e-5
0.234, 2.335e-5
0.235, 2.365e-5
0.236, 2.397e-5
0.237, 2.416e-5
0.238, 2.431e-5
0.239, 2.488e-5
0.240, 2.486e-5
0.241, 2.521e-5
0.242, 2.539e-5
0.243, 2.572e-5
0.244, 2.606e-5
0.245, 2.640e-5
0.246, 2.653e-5
0.247, 2.714e-5
0.248, 2.714e-5
0.249, 2.767e-5
0.250, 7.274e-6
0.249, -6.273e-6
0.248, -9.151e-6
0.247, -1.112e-5
0.246, -1.268e-5
0.245, -1.343e-5
0.244, -1.417e-5
0.243, -1.480e-5
0.242, -1.534e-5
0.241, -1.579e-5
0.240, -1.594e-5
0.239, -1.639e-5
0.238, -1.655e-5
0.237, -1.672e-5
0.236, -1.696e-5
0.235, -1.700e-5
0.234, -1.704e-5
0.233, -1.731e-5
0.232, -1.723e-5
0.231, -1.736e-5
0.230, -1.746e-5
0.229, -1.731e-5
0.228, -1.741e-5
0.227, -1.734e-5
0.226, -1.744e-5
0.225, -1.749e-5
0.224, -1.730e-5
0.223, -1.741e-5
0.222, -1.736e-5
0.221, -1.723e-5
0.220, -1.731e-5
0.219, -1.720e-5
0.218, -1.715e-5
0.217, -1.728e-5
0.216, -1.711e-5
0.215, -1.699e-5
0.214, -1.719e-5
0.213, -1.700e-5
0.212, -1.702e-5
0.211, -1.695e-5
0.210, -1.696e-5
0.209, -1.701e-5
0.208, -1.684e-5
0.207, -1.687e-5
0.206, -1.692e-5
0.205, -1.626e-5
0.204, -1.667e-5
0.203, -1.671e-5
0.202, -1.668e-5
0.201, -1.661e-5
0.200, -1.666e-5
0.199, -1.657e-5
0.198, -1.656e-5
0.197, -1.658e-5
0.196, -1.651e-5
0.195, -1.640e-5
0.194, -1.643e-5
0.193, -1.658e-5
0.192, -1.621e-5
0.191, -1.635e-5
0.190, -1.652e-5
0.189, -1.625e-5
0.188, -1.636e-5
0.187, -1.635e-5
0.186, -1.630e-5
0.185, -1.635e-5
0.184, -1.628e-5
0.183, -1.626e-5
0.182, -1.644e-5
0.181, -1.629e-5
0.180, -1.633e-5
0.179, -1.643e-5
0.178, -1.634e-5
0.177, -1.639e-5
0.176, -1.620e-5
0.175, -1.620e-5
0.174, -1.650e-5
0.173, -1.638e-5
0.172, -1.636e-5
0.171, -1.637e-5
0.170, -1.639e-5
0.169, -1.646e-5
0.168, -1.637e-5
0.167, -1.625e-5
0.166, -1.652e-5
0.165, -1.644e-5
0.164, -1.657e-5
0.163, -1.648e-5
0.162, -1.660e-5
0.161, -1.665e-5
0.160, -1.659e-5
0.159, -1.663e-5
0.158, -1.672e-5
0.157, -1.669e-5
0.156, -1.680e-5
0.155, -1.672e-5
0.154, -1.692e-5
0.153, -1.700e-5
0.152, -1.686e-5
0.151, -1.689e-5
0.150, -3.542e-6
0.151, 4.278e-6
0.152, 5.838e-6
0.153, 6.984e-6
0.154, 7.743e-6
0.155, 8.436e-6
0.156, 8.930e-6
0.157, 9.358e-6
0.158, 9.746e-6
0.159, 1.027e-5
0.160, 1.037e-5
0.161, 1.087e-5
0.162, 1.109e-5
0.163, 1.138e-5
0.164, 1.164e-5
0.165, 1.185e-5
0.166, 1.185e-5
0.167, 1.244e-5
0.168, 1.237e-5
0.169, 1.271e-5
0.170, 1.273e-5
0.171, 1.307e-5
0.172, 1.317e-5
0.173, 1.335e-5
0.174, 1.334e-5
0.175, 1.382e-5
0.176, 1.380e-5
0.177, 1.395e-5
0.178, 1.403e-5
0.179, 1.438e-5
0.180, 1.442e-5
0.181, 1.448e-5
0.182, 1.456e-5
0.183, 1.495e-5
0.184, 1.484e-5
0.185, 1.500e-5
0.186, 1.523e-5
0.187, 1.537e-5
0.188, 1.540e-5
0.189, 1.558e-5
0.190, 1.556e-5
0.191, 1.598e-5
0.192, 1.580e-5
0.193, 1.611e-5
0.194, 1.627e-5
0.195, 1.635e-5
0.196, 1.650e-5
0.197, 1.665e-5
0.198, 1.668e-5
0.199, 1.701e-5
0.200, 1.701e-5
0.201, 1.718e-5
0.202, 1.724e-5
0.203, 1.747e-5
0.204, 1.757e-5
0.205, 1.737e-5
0.206, 1.771e-5
0.207, 1.823e-5
0.208, 1.810e-5
0.209, 1.821e-5
0.210, 1.853e-5
0.211, 1.881e-5
0.212, 1.892e-5
0.213, 1.899e-5
0.214, 1.906e-5
0.215, 1.958e-5
0.216, 1.937e-5
0.217, 1.973e-5
0.218, 1.975e-5
0.219, 2.014e-5
0.220, 2.016e-5
0.221, 2.048e-5
0.222, 2.049e-5
0.223, 2.098e-5
0.224, 2.104e-5
0.225, 2.136e-5
0.226, 2.148e-5
0.227, 2.171e-5
0.228, 2.187e-5
0.229, 2.212e-5
0.230, 2.241e-5
0.231, 2.276e-5
0.232, 2.282e-5
0.233, 2.297e-5
0.234, 2.324e-5
0.235, 2.366e-5
0.236, 2.381e-5
0.237, 2.412e-5
0.238, 2.413e-5
0.239, 2.464e-5
0.240, 2.485e-5
0.241, 2.520e-5
0.242, 2.534e-5
0.243, 2.564e-5
0.244, 2.594e-5
0.245, 2.629e-5
0.246, 2.635e-5
0.247, 2.694e-5
0.248, 2.711e-5
0.249, 2.755e-5
0.250, 7.211e-6
0.249, -6.308e-6
0.248, -9.233e-6
0.247, -1.121e-5
0.246, -1.266e-5
0.245, -1.358e-5
0.244, -1.421e-5
0.243, -1.485e-5
0.242, -1.532e-5
0.241, -1.585e-5
0.240, -1.612e-5
0.239, -1.625e-5
0.238, -1.673e-5
0.237, -1.681e-5
0.236, -1.695e-5
0.235, -1.711e-5
0.234, -1.716e-5
0.233, -1.726e-5
0.232, -1.722e-5
0.231, -1.745e-5
0.230, -1.744e-5
0.229, -1.742e-5
0.228, -1.734e-5
0.227, -1.741e-5
0.226, -1.749e-5
0.225, -1.753e-5
0.224, -1.736e-5
0.223, -1.734e-5
0.222, -1.749e-5
0.221, -1.725e-5
0.220, -1.736e-5
0.219, -1.732e-5
0.218, -1.708e-5
0.217, -1.730e-5
0.216, -1.713e-5
0.215, -1.711e-5
0.214, -1.720e-5
0.213, -1.704e-5
0.212, -1.707e-5
0.211, -1.706e-5
0.210, -1.699e-5
0.209, -1.700e-5
0.208, -1.686e-5
0.207, -1.677e-5
0.206, -1.695e-5
0.205, -1.639e-5
0.204, -1.667e-5
0.203, -1.673e-5
0.202, -1.660e-5
0.201, -1.675e-5
0.200, -1.661e-5
0.199, -1.658e-5
0.198, -1.665e-5
0.197, -1.651e-5
0.196, -1.656e-5
0.195, -1.651e-5
0.194, -1.648e-5
0.193, -1.651e-5
0.192, -1.627e-5
0.191, -1.640e-5
0.190, -1.647e-5
0.189, -1.634e-5
0.188, -1.641e-5
0.187, -1.638e-5
0.186, -1.638e-5
0.185, -1.644e-5
0.184, -1.626e-5
0.183, -1.630e-5
0.182, -1.641e-5
0.181, -1.633e-5
0.180, -1.639e-5
0.179, -1.643e-5
0.178, -1.634e-5
0.177, -1.633e-5
0.176, -1.634e-5
0.175, -1.631e-5
0.174, -1.643e-5
0.173, -1.636e-5
0.172, -1.636e-5
0.171, -1.644e-5
0.170, -1.639e-5
0.169, -1.655e-5
0.168, -1.643e-5
0.167, -1.633e-5
0.166, -1.659e-5
0.165, -1.647e-5
0.164, -1.653e-5
0.163, -1.653e-5
0.162, -1.663e-5
0.161, -1.672e-5
0.160, -1.663e-5
0.159, -1.665e-5
0.158, -1.682e-5
0.157, -1.674e-5
0.156, -1.667e-5
0.155, -1.685e-5
0.154, -1.694e-5
0.153, -1.695e-5
0.152, -1.689e-5
0.151, -1.693e-5
0.150, -3.607e-6
0.151, 4.284e-6
0.152, 5.824e-6
0.153, 6.903e-6
0.154, 7.695e-6
0.155, 8.400e-6
0.156, 8.875e-6
0.157, 9.326e-6
0.158, 9.737e-6
0.159, 1.021e-5
0.160, 1.050e-5
0.161, 1.090e-5
0.162, 1.104e-5
0.163, 1.143e-5
0.164, 1.162e-5
0.165, 1.179e-5
0.166, 1.181e-5
0.167, 1.241e-5
0.168, 1.235e-5
0.169, 1.262e-5
0.170, 1.276e-5
0.171, 1.301e-5
0.172, 1.319e-5
0.173, 1.329e-5
0.174, 1.341e-5
0.175, 1.376e-5
0.176, 1.376e-5
0.177, 1.396e-5
0.178, 1.402e-5
0.179, 1.436e-5
0.180, 1.438e-5
0.181, 1.448e-5
0.182, 1.446e-5
0.183, 1.497e-5
0.184, 1.483e-5
0.185, 1.505e-5
0.186, 1.519e-5
0.187, 1.522e-5
0.188, 1.542e-5
0.189, 1.550e-5
0.190, 1.561e-5
0.191, 1.596e-5
0.192, 1.570e-5
0.193, 1.609e-5
0.194, 1.620e-5
0.195, 1.636e-5
0.196, 1.647e-5
0.197, 1.660e-5
0.198, 1.665e-5
0.199, 1.696e-5
0.200, 1.692e-5
0.201, 1.714e-5
0.202, 1.727e-5
0.203, 1.745e-5
0.204, 1.756e-5
0.205, 1.739e-5
0.206, 1.768e-5
0.207, 1.815e-5
0.208, 1.799e-5
0.209, 1.832e-5
0.210, 1.847e-5
0.211, 1.875e-5
0.212, 1.876e-5
0.213, 1.901e-5
0.214, 1.898e-5
0.215, 1.948e-5
0.216, 1.942e-5
0.217, 1.958e-5
0.218, 1.975e-5
0.219, 2.006e-5
0.220, 2.030e-5
0.221, 2.046e-5
0.222, 2.050e-5
0.223, 2.093e-5
0.224, 2.095e-5
0.225, 2.125e-5
0.226, 2.138e-5
0.227, 2.161e-5
0.228, 2.196e-5
0.229, 2.200e-5
0.230, 2.231e-5
0.231, 2.257e-5
0.232, 2.276e-5
0.233, 2.306e-5
0.234, 2.323e-5
0.235, 2.352e-5
0.236, 2.380e-5
0.237, 2.401e-5
0.238, 2.408e-5
0.239, 2.470e-5
0.240, 2.466e-5
0.241, 2.518e-5
0.242, 2.525e-5
0.243, 2.551e-5
0.244, 2.592e-5
0.245, 2.614e-5
0.246, 2.654e-5
0.247, 2.684e-5
0.248, 2.708e-5
0.249, 2.745e-5
0.250, 7.203e-6
0.249, -6.386e-6
0.248, -9.286e-6
0.247, -1.123e-5
0.246, -1.273e-5
0.245, -1.355e-5
0.244, -1.432e-5
0.243, -1.489e-5
0.242, -1.539e-5
0.241, -1.593e-5
0.240, -1.606e-5
0.239, -1.641e-5
0.238, -1.674e-5
0.237, -1.676e-5
0.236, -1.698e-5
0.235, -1.715e-5
0.234, -1.713e-5
0.233, -1.728e-5
0.232, -1.734e-5
0.231, -1.742e-5
0.230, -1.761e-5
0.229, -1.741e-5
0.228, -1.740e-5
0.227, -1.737e-5
0.226, -1.752e-5
0.225, -1.746e-5
0.224, -1.739e-5
0.223, -1.731e-5
0.222, -1.751e-5
0.221, -1.724e-5
0.220, -1.735e-5
0.219, -1.731e-5
0.218, -1.710e-5
0.217, -1.732e-5
0.216, -1.715e-5
0.215, -1.705e-5
0.214, -1.723e-5
0.213, -1.704e-5
0.212, -1.707e-5
0.211, -1.709e-5
0.210, -1.701e-5
0.209, -1.697e-5
0.208, -1.692e-5
0.207, -1.687e-5
0.206, -1.694e-5
0.205, -1.639e-5
0.204, -1.676e-5
0.203, -1.670e-5
0.202, -1.670e-5
0.201, -1.668e-5
0.200, -1.658e-5
0.199, -1.660e-5
0.198, -1.667e-5
0.197, -1.652e-5
0.196, -1.648e-5
0.195, -1.650e-5
0.194, -1.649e-5
0.193, -1.654e-5
0.192, -1.626e-5
0.191, -1.645e-5
0.190, -1.646e-5
0.189, -1.634e-5
0.188, -1.644e-5
0.187, -1.632e-5
0.186, -1.646e-5
0.185, -1.645e-5
0.184, -1.629e-5
0.183, -1.628e-5
0.182, -1.644e-5
0.181, -1.629e-5
0.180, -1.647e-5
0.179, -1.644e-5
0.178, -1.633e-5
0.177, -1.642e-5
0.176, -1.627e-5
0.175, -1.641e-5
0.174, -1.649e-5
0.173, -1.645e-5
0.172, -1.646e-5
0.171, -1.640e-5
0.170, -1.635e-5
0.169, -1.648e-5
0.168, -1.650e-5
0.167, -1.641e-5
0.166, -1.652e-5
0.165, -1.646e-5
0.164, -1.659e-5
0.163, -1.650e-5
0.162, -1.661e-5
0.161, -1.670e-5
0.160, -1.665e-5
0.159, -1.668e-5
0.158, -1.680e-5
0.157, -1.677e-5
0.156, -1.681e-5
0.155, -1.684e-5
0.154, -1.690e-5
0.153, -1.706e-5
0.152, -1.686e-5
0.151, -1.703e-5
0.150, -3.573e-6
0.151, 4.318e-6
0.152, 5.725e-6
0.153, 6.955e-6
0.154, 7.562e-6
0.155, 8.416e-6
0.156, 8.801e-6
0.157, 9.388e-6
0.158, 9.616e-6
0.159, 1.029e-5
0.160, 1.043e-5
0.161, 1.074e-5
0.162, 1.114e-5
0.163, 1.141e-5
0.164, 1.161e-5
0.165, 1.172e-5
0.166, 1.185e-5
0.167, 1.236e-5
0.168, 1.239e-5
0.169, 1.263e-5
0.170, 1.276e-5
0.171, 1.308e-5
0.172, 1.308e-5
0.173, 1.337e-5
0.174, 1.330e-5
0.175, 1.376e-5
0.176, 1.372e-5
0.177, 1.403e-5
0.178, 1.403e-5
0.179, 1.432e-5
0.180, 1.438e-5
0.181, 1.448e-5
0.182, 1.446e-5
0.183, 1.492e-5
0.184, 1.482e-5
0.185, 1.506e-5
0.186, 1.518e-5
0.187, 1.530e-5
0.188, 1.534e-5
0.189, 1.551e-5
0.190, 1.564e-5
0.191, 1.593e-5
0.192, 1.573e-5
0.193, 1.602e-5
0.194, 1.621e-5
0.195, 1.633e-5
0.196, 1.639e-5
0.197, 1.661e-5
0.198, 1.665e-5
0.199, 1.695e-5
0.200, 1.689e-5
0.201, 1.713e-5
0.202, 1.726e-5
0.203, 1.737e-5
0.204, 1.759e-5
0.205, 1.730e-5
0.206, 1.769e-5
0.207, 1.812e-5
0.208, 1.799e-5
0.209, 1.833e-5
0.210, 1.842e-5
0.211, 1.859e-5
0.212, 1.883e-5
0.213, 1.895e-5
0.214, 1.898e-5
0.215, 1.944e-5
0.216, 1.934e-5
0.217, 1.967e-5
0.218, 1.978e-5
0.219, 2.000e-5
0.220, 2.016e-5
0.221, 2.034e-5
0.222, 2.045e-5
0.223, 2.093e-5
0.224, 2.099e-5
0.225, 2.123e-5
0.226, 2.132e-5
0.227, 2.167e-5
0.228, 2.181e-5
0.229, 2.211e-5
0.230, 2.234e-5
0.231, 2.273e-5
0.232, 2.263e-5
0.233, 2.304e-5
0.234, 2.306e-5
0.235, 2.361e-5
0.236, 2.369e-5
0.237, 2.403e-5
0.238, 2.401e-5
0.239, 2.463e-5
0.240, 2.474e-5
0.241, 2.508e-5
0.242, 2.531e-5
0.243, 2.538e-5
0.244, 2.581e-5
0.245, 2.623e-5
0.246, 2.629e-5
0.247, 2.689e-5
0.248, 2.704e-5
0.249, 2.733e-5
0.250, 7.131e-6
0.249, -6.203e-6
0.248, -9.509e-6
0.247, -1.128e-5
0.246, -1.266e-5
0.245, -1.358e-5
0.244, -1.423e-5
0.243, -1.486e-5
0.242, -1.552e-5
0.241, -1.576e-5
0.240, -1.616e-5
0.239, -1.633e-5
0.238, -1.679e-5
0.237, -1.687e-5
0.236, -1.700e-5
0.235, -1.707e-5
0.234, -1.721e-5
0.233, -1.727e-5
0.232, -1.729e-5
0.231, -1.746e-5
0.230, -1.752e-5
0.229, -1.740e-5
0.228, -1.746e-5
0.227, -1.731e-5
0.226, -1.758e-5
0.225, -1.732e-5
0.224, -1.745e-5
0.223, -1.737e-5
0.222, -1.743e-5
0.221, -1.739e-5
0.220, -1.730e-5
0.219, -1.722e-5
0.218, -1.722e-5
0.217, -1.730e-5
0.216, -1.714e-5
0.215, -1.716e-5
0.214, -1.723e-5
0.213, -1.704e-5
0.212, -1.715e-5
0.211, -1.704e-5
0.210, -1.694e-5
0.209, -1.704e-5
0.208, -1.677e-5
0.207, -1.690e-5
0.206, -1.687e-5
0.205, -1.647e-5
0.204, -1.664e-5
0.203, -1.672e-5
0.202, -1.671e-5
0.201, -1.665e-5
0.200, -1.665e-5
0.199, -1.663e-5
0.198, -1.660e-5
0.197, -1.651e-5
0.196, -1.662e-5
0.195, -1.658e-5
0.194, -1.650e-5
0.193, -1.653e-5
0.192, -1.626e-5
0.191, -1.633e-5
0.190, -1.653e-5
0.189, -1.630e-5
0.188, -1.645e-5
0.187, -1.637e-5
0.186, -1.641e-5
0.185, -1.650e-5
0.184, -1.634e-5
0.183, -1.631e-5
0.182, -1.641e-5
0.181, -1.620e-5
0.180, -1.647e-5
0.179, -1.641e-5
0.178, -1.644e-5
0.177, -1.636e-5
0.176, -1.635e-5
0.175, -1.634e-5
0.174, -1.647e-5
0.173, -1.637e-5
0.172, -1.642e-5
0.171, -1.646e-5
0.170, -1.640e-5
0.169, -1.648e-5
0.168, -1.647e-5
0.167, -1.640e-5
0.166, -1.661e-5
0.165, -1.644e-5
0.164, -1.663e-5
0.163, -1.654e-5
0.162, -1.663e-5
0.161, -1.674e-5
0.160, -1.665e-5
0.159, -1.671e-5
0.158, -1.684e-5
0.157, -1.679e-5
0.156, -1.682e-5
0.155, -1.683e-5
0.154, -1.692e-5
0.153, -1.707e-5
0.152, -1.694e-5
0.151, -1.696e-5
0.150, -3.607e-6
0.151, 4.216e-6
0.152, 5.730e-6
0.153, 6.944e-6
0.154, 7.631e-6
0.155, 8.395e-6
0.156, 8.784e-6
0.157, 9.326e-6
0.158, 9.654e-6
0.159, 1.025e-5
0.160, 1.045e-5
0.161, 1.080e-5
0.162, 1.106e-5
0.163, 1.138e-5
0.164, 1.166e-5
0.165, 1.183e-5
0.166, 1.179e-5
0.167, 1.234e-5
0.168, 1.242e-5
0.169, 1.261e-5
0.170, 1.270e-5
0.171, 1.300e-5
0.172, 1.314e-5
0.173, 1.333e-5
0.174, 1.329e-5
0.175, 1.372e-5
0.176, 1.369e-5
0.177, 1.398e-5
0.178, 1.402e-5
0.179, 1.430e-5
0.180, 1.438e-5
0.181, 1.456e-5
0.182, 1.449e-5
0.183, 1.481e-5
0.184, 1.487e-5
0.185, 1.505e-5
0.186, 1.514e-5
0.187, 1.524e-5
0.188, 1.546e-5
0.189, 1.549e-5
0.190, 1.557e-5
0.191, 1.588e-5
0.192, 1.572e-5
0.193, 1.613e-5
0.194, 1.612e-5
0.195, 1.638e-5
0.196, 1.645e-5
0.197, 1.657e-5
0.198, 1.659e-5
0.199, 1.703e-5
0.200, 1.688e-5
0.201, 1.712e-5
0.202, 1.722e-5
0.203, 1.745e-5
0.204, 1.747e-5
0.205, 1.737e-5
0.206, 1.757e-5
0.207, 1.811e-5
0.208, 1.791e-5
0.209, 1.834e-5
0.210, 1.842e-5
0.211, 1.870e-5
0.212, 1.879e-5
0.213, 1.893e-5
0.214, 1.897e-5
0.215, 1.939e-5
0.216, 1.942e-5
0.217, 1.956e-5
0.218, 1.965e-5
0.219, 2.009e-5
0.220, 2.017e-5
0.221, 2.032e-5
0.222, 2.046e-5
0.223, 2.092e-5
0.224, 2.092e-5
0.225, 2.115e-5
0.226, 2.135e-5
0.227, 2.164e-5
0.228, 2.185e-5
0.229, 2.203e-5
0.230, 2.220e-5
0.231, 2.268e-5
0.232, 2.268e-5
0.233, 2.289e-5
0.234, 2.311e-5
0.235, 2.341e-5
0.236, 2.375e-5
0.237, 2.399e-5
0.238, 2.408e-5
0.239, 2.467e-5
0.240, 2.458e-5
0.241, 2.511e-5
0.242, 2.519e-5
0.243, 2.550e-5
0.244, 2.587e-5
0.245, 2.601e-5
0.246, 2.629e-5
0.247, 2.691e-5
0.248, 2.703e-5
0.249, 2.737e-5
0.250, 7.018e-6
0.249, -6.338e-6
0.248, -9.365e-6
0.247, -1.131e-5
0.246, -1.275e-5
0.245, -1.351e-5
0.244, -1.443e-5
0.243, -1.484e-5
0.242, -1.546e-5
0.241, -1.590e-5
0.240, -1.608e-5
0.239, -1.642e-5
0.238, -1.677e-5
0.237, -1.690e-5
0.236, -1.698e-5
0.235, -1.708e-5
0.234, -1.718e-5
0.233, -1.744e-5
0.232, -1.725e-5
0.231, -1.748e-5
0.230, -1.752e-5
0.229, -1.736e-5
0.228, -1.745e-5
0.227, -1.744e-5
0.226, -1.747e-5
0.225, -1.744e-5
0.224, -1.743e-5
0.223, -1.736e-5
0.222, -1.749e-5
0.221, -1.730e-5
0.220, -1.743e-5
0.219, -1.723e-5
0.218, -1.719e-5
0.217, -1.726e-5
0.216, -1.712e-5
0.215, -1.712e-5
0.214, -1.725e-5
0.213, -1.700e-5
0.212, -1.710e-5
0.211, -1.704e-5
0.210, -1.700e-5
0.209, -1.702e-5
0.208, -1.682e-5
0.207, -1.688e-5
0.206, -1.690e-5
0.205, -1.635e-5
0.204, -1.674e-5
0.203, -1.672e-5
0.202, -1.676e-5
0.201, -1.666e-5
0.200, -1.658e-5
0.199, -1.664e-5
0.198, -1.671e-5
0.197, -1.651e-5
0.196, -1.659e-5
0.195, -1.644e-5
0.194, -1.656e-5
0.193, -1.649e-5
0.192, -1.626e-5
0.191, -1.641e-5
0.190, -1.650e-5
0.189, -1.635e-5
0.188, -1.638e-5
0.187, -1.643e-5
0.186, -1.640e-5
0.185, -1.646e-5
0.184, -1.630e-5
0.183, -1.632e-5
0.182, -1.653e-5
0.181, -1.629e-5
0.180, -1.645e-5
0.179, -1.637e-5
0.178, -1.645e-5
0.177, -1.645e-5
0.176, -1.627e-5
0.175, -1.636e-5
0.174, -1.647e-5
0.173, -1.645e-5
0.172, -1.638e-5
0.171, -1.640e-5
0.170, -1.643e-5
0.169, -1.651e-5
0.168, -1.653e-5
0.167, -1.640e-5
0.166, -1.660e-5
0.165, -1.649e-5
0.164, -1.660e-5
0.163, -1.661e-5
0.162, -1.662e-5
0.161, -1.672e-5
0.160, -1.658e-5
0.159, -1.674e-5
0.158, -1.685e-5
0.157, -1.680e-5
0.156, -1.678e-5
0.155, -1.691e-5
0.154, -1.702e-5
0.153, -1.700e-5
0.152, -1.696e-5
0.151, -1.699e-5
0.150, -3.571e-6
0.151, 4.290e-6
0.152, 5.723e-6
0.153, 6.945e-6
0.154, 7.601e-6
0.155, 8.377e-6
0.156, 8.937e-6
0.157, 9.346e-6
0.158, 9.642e-6
0.159, 1.026e-5
0.160, 1.042e-5
0.161, 1.080e-5
0.162, 1.101e-5
0.163, 1.136e-5
0.164, 1.160e-5
0.165, 1.187e-5
0.166, 1.184e-5
0.167, 1.230e-5
0.168, 1.244e-5
0.169, 1.256e-5
0.170, 1.273e-5
0.171, 1.296e-5
0.172, 1.321e-5
0.173, 1.328e-5
0.174, 1.333e-5
0.175, 1.371e-5
0.176, 1.358e-5
0.177, 1.402e-5
0.178, 1.391e-5
0.179, 1.437e-5
0.180, 1.438e-5
0.181, 1.446e-5
0.182, 1.446e-5
0.183, 1.484e-5
0.184, 1.481e-5
0.185, 1.500e-5
0.186, 1.515e-5
0.187, 1.525e-5
0.188, 1.540e-5
0.189, 1.557e-5
0.190, 1.549e-5
0.191, 1.591e-5
0.192, 1.564e-5
0.193, 1.608e-5
0.194, 1.613e-5
0.195, 1.628e-5
0.196, 1.648e-5
0.197, 1.660e-5
0.198, 1.661e-5
0.199, 1.699e-5
0.200, 1.685e-5
0.201, 1.712e-5
0.202, 1.720e-5
0.203, 1.742e-5
0.204, 1.750e-5
0.205, 1.724e-5
0.206, 1.766e-5
0.207, 1.803e-5
0.208, 1.799e-5
0.209, 1.833e-5
0.210, 1.841e-5
0.211, 1.868e-5
0.212, 1.878e-5
0.213, 1.893e-5
0.214, 1.900e-5
0.215, 1.945e-5
0.216, 1.933e-5
0.217, 1.953e-5
0.218, 1.968e-5
0.219, 2.000e-5
0.220, 2.010e-5
0.221, 2.037e-5
0.222, 2.033e-5
0.223, 2.101e-5
0.224, 2.089e-5
0.225, 2.109e-5
0.226, 2.135e-5
0.227, 2.162e-5
0.228, 2.177e-5
0.229, 2.212e-5
0.230, 2.223e-5
0.231, 2.265e-5
0.232, 2.267e-5
0.233, 2.291e-5
0.234, 2.303e-5
0.235, 2.353e-5
0.236, 2.372e-5
0.237, 2.388e-5
0.238, 2.410e-5
0.239, 2.465e-5
0.240, 2.447e-5
0.241, 2.510e-5
0.242, 2.524e-5
0.243, 2.546e-5
0.244, 2.581e-5
0.245, 2.604e-5
0.246, 2.625e-5
0.247, 2.687e-5
0.248, 2.698e-5
0.249, 2.737e-5
0.250, 7.014e-6
0.249, -6.348e-6
0.248, -9.426e-6
0.247, -1.130e-5
0.246, -1.273e-5
0.245, -1.354e-5
0.244, -1.428e-5
0.243, -1.490e-5
0.242, -1.543e-5
0.241, -1.605e-5
0.240, -1.594e-5
0.239, -1.638e-5
0.238, -1.691e-5
0.237, -1.677e-5
0.236, -1.696e-5
0.235, -1.706e-5
0.234, -1.728e-5
0.233, -1.734e-5
0.232, -1.722e-5
0.231, -1.753e-5
0.230, -1.749e-5
0.229, -1.743e-5
0.228, -1.740e-5
0.227, -1.746e-5
0.226, -1.745e-5
0.225, -1.747e-5
0.224, -1.741e-5
0.223, -1.737e-5
0.222, -1.753e-5
0.221, -1.729e-5
0.220, -1.732e-5
0.219, -1.727e-5
0.218, -1.719e-5
0.217, -1.726e-5
0.216, -1.721e-5
0.215, -1.708e-5
0.214, -1.719e-5
0.213, -1.709e-5
0.212, -1.701e-5
0.211, -1.703e-5
0.210, -1.701e-5
0.209, -1.705e-5
0.208, -1.684e-5
0.207, -1.683e-5
0.206, -1.695e-5
0.205, -1.641e-5
0.204, -1.669e-5
0.203, -1.670e-5
0.202, -1.678e-5
0.201, -1.675e-5
0.200, -1.656e-5
0.199, -1.667e-5
0.198, -1.664e-5
0.197, -1.658e-5
0.196, -1.655e-5
0.195, -1.650e-5
0.194, -1.652e-5
0.193, -1.649e-5
0.192, -1.631e-5
0.191, -1.643e-5
0.190, -1.649e-5
0.189, -1.634e-5
0.188, -1.645e-5
0.187, -1.641e-5
0.186, -1.641e-5
0.185, -1.639e-5
0.184, -1.630e-5
0.183, -1.643e-5
0.182, -1.641e-5
0.181, -1.630e-5
0.180, -1.645e-5
0.179, -1.645e-5
0.178, -1.636e-5
0.177, -1.643e-5
0.176, -1.631e-5
0.175, -1.639e-5
0.174, -1.646e-5
0.173, -1.636e-5
0.172, -1.643e-5
0.171, -1.645e-5
0.170, -1.647e-5
0.169, -1.648e-5
0.168, -1.649e-5
0.167, -1.641e-5
0.166, -1.655e-5
0.165, -1.649e-5
0.164, -1.658e-5
0.163, -1.664e-5
0.162, -1.665e-5
0.161, -1.674e-5
0.160, -1.668e-5
0.159, -1.669e-5
0.158, -1.682e-5
0.157, -1.680e-5
0.156, -1.679e-5
0.155, -1.689e-5
0.154, -1.700e-5
0.153, -1.700e-5
0.152, -1.697e-5
0.151, -1.697e-5
0.150, -3.655e-6
0.151, 4.302e-6
0.152, 5.665e-6
0.153, 6.982e-6
0.154, 7.617e-6
0.155, 8.342e-6
0.156, 8.847e-6
0.157, 9.354e-6
0.158, 9.686e-6
0.159, 1.017e-5
0.160, 1.041e-5
0.161, 1.080e-5
0.162, 1.112e-5
0.163, 1.140e-5
0.164, 1.155e-5
0.165, 1.187e-5
0.166, 1.177e-5
0.167, 1.233e-5
0.168, 1.228e-5
0.169, 1.260e-5
0.170, 1.274e-5
0.171, 1.301e-5
0.172, 1.313e-5
0.173, 1.325e-5
0.174, 1.340e-5
0.175, 1.376e-5
0.176, 1.367e-5
0.177, 1.391e-5
0.178, 1.402e-5
0.179, 1.433e-5
0.180, 1.438e-5
0.181, 1.447e-5
0.182, 1.448e-5
0.183, 1.481e-5
0.184, 1.481e-5
0.185, 1.502e-5
0.186, 1.506e-5
0.187, 1.531e-5
0.188, 1.544e-5
0.189, 1.550e-5
0.190, 1.552e-5
0.191, 1.591e-5
0.192, 1.570e-5
0.193, 1.604e-5
0.194, 1.610e-5
0.195, 1.635e-5
0.196, 1.649e-5
0.197, 1.659e-5
0.198, 1.659e-5
0.199, 1.687e-5
0.200, 1.689e-5
0.201, 1.708e-5
0.202, 1.724e-5
0.203, 1.745e-5
0.204, 1.746e-5
0.205, 1.730e-5
0.206, 1.758e-5
0.207, 1.810e-5
0.208, 1.788e-5
0.209, 1.827e-5
0.210, 1.838e-5
0.211, 1.867e-5
0.212, 1.875e-5
0.213, 1.888e-5
0.214, 1.901e-5
0.215, 1.937e-5
0.216, 1.928e-5
0.217, 1.951e-5
0.218, 1.969e-5
0.219, 2.001e-5
0.220, 2.020e-5
0.221, 2.029e-5
0.222, 2.050e-5
0.223, 2.085e-5
0.224, 2.091e-5
0.225, 2.110e-5
0.226, 2.143e-5
0.227, 2.155e-5
0.228, 2.183e-5
0.229, 2.200e-5
0.230, 2.222e-5
0.231, 2.256e-5
0.232, 2.261e-5
0.233, 2.289e-5
0.234, 2.312e-5
0.235, 2.342e-5
0.236, 2.373e-5
0.237, 2.392e-5
0.238, 2.402e-5
0.239, 2.460e-5
0.240, 2.457e-5
0.241, 2.504e-5
0.242, 2.517e-5
0.243, 2.535e-5
0.244, 2.579e-5
0.245, 2.606e-5
0.246, 2.621e-5
0.247, 2.684e-5
0.248, 2.687e-5
0.249, 2.737e-5
0.250, 7.202e-6
0.249, -6.399e-6
0.248, -9.308e-6
0.247, -1.139e-5
0.246, -1.271e-5
0.245, -1.360e-5
0.244, -1.429e-5
0.243, -1.489e-5
0.242, -1.551e-5
0.241, -1.586e-5
0.240, -1.612e-5
0.239, -1.639e-5
0.238, -1.677e-5
0.237, -1.686e-5
0.236, -1.702e-5
0.235, -1.706e-5
0.234, -1.715e-5
0.233, -1.730e-5
0.232, -1.729e-5
0.231, -1.762e-5
0.230, -1.748e-5
0.229, -1.732e-5
0.228, -1.747e-5
0.227, -1.747e-5
0.226, -1.741e-5
0.225, -1.753e-5
0.224, -1.743e-5
0.223, -1.728e-5
0.222, -1.753e-5
0.221, -1.726e-5
0.220, -1.732e-5
0.219, -1.734e-5
0.218, -1.707e-5
0.217, -1.733e-5
0.216, -1.722e-5
0.215, -1.714e-5
0.214, -1.720e-5
0.213, -1.710e-5
0.212, -1.700e-5
0.211, -1.706e-5
0.210, -1.708e-5
0.209, -1.695e-5
0.208, -1.688e-5
0.207, -1.686e-5
0.206, -1.686e-5
0.205, -1.643e-5
0.204, -1.674e-5
0.203, -1.679e-5
0.202, -1.671e-5
0.201, -1.666e-5
0.200, -1.653e-5
0.199, -1.667e-5
0.198, -1.670e-5
0.197, -1.657e-5
0.196, -1.649e-5
0.195, -1.651e-5
0.194, -1.651e-5
0.193, -1.650e-5
0.192, -1.630e-5
0.191, -1.645e-5
0.190, -1.649e-5
0.189, -1.628e-5
0.188, -1.639e-5
0.187, -1.645e-5
0.186, -1.642e-5
0.185, -1.646e-5
0.184, -1.632e-5
0.183, -1.634e-5
0.182, -1.641e-5
0.181, -1.633e-5
0.180, -1.641e-5
0.179, -1.644e-5
0.178, -1.644e-5
0.177, -1.634e-5
0.176, -1.639e-5
0.175, -1.648e-5
0.174, -1.646e-5
0.173, -1.640e-5
0.172, -1.646e-5
0.171, -1.640e-5
0.170, -1.645e-5
0.169, -1.655e-5
0.168, -1.641e-5
0.167, -1.640e-5
0.166, -1.653e-5
0.165, -1.652e-5
0.164, -1.662e-5
0.163, -1.668e-5
0.162, -1.667e-5
0.161, -1.673e-5
0.160, -1.664e-5
0.159, -1.668e-5
0.158, -1.690e-5
0.157, -1.667e-5
0.156, -1.686e-5
0.155, -1.692e-5
0.154, -1.697e-5
0.153, -1.704e-5
0.152, -1.694e-5
0.151, -1.704e-5
0.150, -3.607e-6
0.151, 4.298e-6
0.152, 5.643e-6
0.153, 6.897e-6
0.154, 7.661e-6
0.155, 8.368e-6
0.156, 8.855e-6
0.157, 9.304e-6
0.158, 9.768e-6
0.159, 1.023e-5
0.160, 1.038e-5
0.161, 1.088e-5
0.162, 1.101e-5
0.163, 1.139e-5
0.164, 1.161e-5
0.165, 1.176e-5
0.166, 1.183e-5
0.167, 1.240e-5
0.168, 1.230e-5
0.169, 1.266e-5
0.170, 1.266e-5
0.171, 1.306e-5
0.172, 1.307e-5
0.173, 1.330e-5
0.174, 1.331e-5
0.175, 1.382e-5
0.176, 1.370e-5
0.177, 1.389e-5
0.178, 1.404e-5
0.179, 1.432e-5
0.180, 1.431e-5
0.181, 1.439e-5
0.182, 1.454e-5
0.183, 1.494e-5
0.184, 1.474e-5
0.185, 1.502e-5
0.186, 1.503e-5
0.187, 1.537e-5
0.188, 1.532e-5
0.189, 1.548e-5
0.190, 1.554e-5
0.191, 1.592e-5
0.192, 1.567e-5
0.193, 1.608e-5
0.194, 1.610e-5
0.195, 1.625e-5
0.196, 1.649e-5
0.197, 1.656e-5
0.198, 1.659e-5
0.199, 1.699e-5
0.200, 1.686e-5
0.201, 1.712e-5
0.202, 1.717e-5
0.203, 1.742e-5
0.204, 1.749e-5
0.205, 1.728e-5
0.206, 1.758e-5
0.207, 1.806e-5
0.208, 1.797e-5
0.209, 1.821e-5
0.210, 1.834e-5
0.211, 1.860e-5
0.212, 1.875e-5
0.213, 1.892e-5
0.214, 1.901e-5
0.215, 1.940e-5
0.216, 1.936e-5
0.217, 1.951e-5
0.218, 1.962e-5
0.219, 2.005e-5
0.220, 2.023e-5
0.221, 2.023e-5
0.222, 2.043e-5
0.223, 2.093e-5
0.224, 2.079e-5
0.225, 2.113e-5
0.226, 2.127e-5
0.227, 2.158e-5
0.228, 2.180e-5
0.229, 2.194e-5
0.230, 2.230e-5
0.231, 2.258e-5
0.232, 2.265e-5
0.233, 2.295e-5
0.234, 2.314e-5
0.235, 2.341e-5
0.236, 2.362e-5
0.237, 2.390e-5
0.238, 2.403e-5
0.239, 2.471e-5
0.240, 2.448e-5
0.241, 2.497e-5
0.242, 2.516e-5
0.243, 2.543e-5
0.244, 2.578e-5
0.245, 2.606e-5
0.246, 2.631e-5
0.247, 2.686e-5
0.248, 2.697e-5
0.249, 2.728e-5
0.250, 7.015e-6
0.249, -6.346e-6
0.248, -9.498e-6
0.247, -1.130e-5
0.246, -1.277e-5
0.245, -1.358e-5
0.244, -1.437e-5
0.243, -1.489e-5
0.242, -1.550e-5
0.241, -1.595e-5
0.240, -1.601e-5
0.239, -1.640e-5
0.238, -1.680e-5
0.237, -1.682e-5
0.236, -1.703e-5
0.235, -1.719e-5
0.234, -1.713e-5
0.233, -1.728e-5
0.232, -1.732e-5
0.231, -1.755e-5
0.230, -1.748e-5
0.229, -1.732e-5
0.228, -1.749e-5
0.227, -1.735e-5
0.226, -1.753e-5
0.225, -1.749e-5
0.224, -1.737e-5
0.223, -1.738e-5
0.222, -1.746e-5
0.221, -1.727e-5
0.220, -1.733e-5
0.219, -1.736e-5
0.218, -1.716e-5
0.217, -1.722e-5
0.216, -1.710e-5
0.215, -1.716e-5
0.214, -1.721e-5
0.213, -1.700e-5
0.212, -1.715e-5
0.211, -1.707e-5
0.210, -1.705e-5
0.209, -1.695e-5
0.208, -1.684e-5
0.207, -1.683e-5
0.206, -1.691e-5
0.205, -1.638e-5
0.204, -1.674e-5
0.203, -1.677e-5
0.202, -1.670e-5
0.201, -1.670e-5
0.200, -1.662e-5
0.199, -1.662e-5
0.198, -1.672e-5
0.197, -1.645e-5
0.196, -1.660e-5
0.195, -1.653e-5
0.194, -1.647e-5
0.193, -1.650e-5
0.192, -1.636e-5
0.191, -1.638e-5
0.190, -1.643e-5
0.189, -1.628e-5
0.188, -1.643e-5
0.187, -1.649e-5
0.186, -1.639e-5
0.185, -1.640e-5
0.184, -1.633e-5
0.183, -1.638e-5
0.182, -1.641e-5
0.181, -1.626e-5
0.180, -1.642e-5
0.179, -1.642e-5
0.178, -1.637e-5
0.177, -1.643e-5
0.176, -1.633e-5
0.175, -1.638e-5
0.174, -1.652e-5
0.173, -1.639e-5
0.172, -1.644e-5
0.171, -1.642e-5
0.170, -1.648e-5
0.169, -1.647e-5
0.168, -1.646e-5
0.167, -1.641e-5
0.166, -1.653e-5
0.165, -1.658e-5
0.164, -1.661e-5
0.163, -1.661e-5
0.162, -1.670e-5
0.161, -1.669e-5
0.160, -1.675e-5
0.159, -1.675e-5
0.158, -1.688e-5
0.157, -1.673e-5
0.156, -1.682e-5
0.155, -1.689e-5
0.154, -1.700e-5
0.153, -1.696e-5
0.152, -1.696e-5
0.151, -1.710e-5
