Sept. 9, 2026   18:10:37
Cyclic Voltammetry
File: d:\desktop\sample\ni foil\ni_foil_cv 20 mv.bin
Data Source:  Experiment
Instrument Model:  CHI660D
Header: 
Note: 

Init E (V) = 0.15
High E (V) = 0.25
Low E (V) = 0.15
Init P/N = P
Scan Rate (V/s) = 0.02
Segment = 10
Sample Interval (V) = 0.001
Quiet Time (sec) = 10
Sensitivity (A/V) = 0.001

Results:

Channel 1:
Segment 1:

Segment 2:

Segment 3:

Segment 4:

Segment 5:

Segment 6:

Segment 7:

Segment 8:

Segment 9:

Segment 10:

Potential/V, Current/A

0.150, 2.148e-6
0.151, 3.355e-6
0.152, 3.563e-6
0.153, 3.773e-6
0.154, 3.881e-6
0.155, 3.981e-6
0.156, 4.066e-6
0.157, 4.130e-6
0.158, 4.216e-6
0.159, 4.301e-6
0.160, 4.306e-6
0.161, 4.405e-6
0.162, 4.461e-6
0.163, 4.487e-6
0.164, 4.559e-6
0.165, 4.585e-6
0.166, 4.588e-6
0.167, 4.690e-6
0.168, 4.696e-6
0.169, 4.755e-6
0.170, 4.777e-6
0.171, 4.832e-6
0.172, 4.892e-6
0.173, 4.908e-6
0.174, 4.905e-6
0.175, 4.995e-6
0.176, 4.974e-6
0.177, 5.028e-6
0.178, 5.052e-6
0.179, 5.105e-6
0.180, 5.143e-6
0.181, 5.126e-6
0.182, 5.147e-6
0.183, 5.226e-6
0.184, 5.209e-6
0.185, 5.267e-6
0.186, 5.302e-6
0.187, 5.301e-6
0.188, 5.351e-6
0.189, 5.379e-6
0.190, 5.376e-6
0.191, 5.459e-6
0.192, 5.400e-6
0.193, 5.480e-6
0.194, 5.538e-6
0.195, 5.541e-6
0.196, 5.576e-6
0.197, 5.644e-6
0.198, 5.661e-6
0.199, 5.742e-6
0.200, 5.713e-6
0.201, 5.768e-6
0.202, 5.806e-6
0.203, 5.882e-6
0.204, 5.880e-6
0.205, 5.817e-6
0.206, 5.931e-6
0.207, 6.061e-6
0.208, 6.032e-6
0.209, 6.088e-6
0.210, 6.139e-6
0.211, 6.175e-6
0.212, 6.267e-6
0.213, 6.282e-6
0.214, 6.279e-6
0.215, 6.397e-6
0.216, 6.400e-6
0.217, 6.446e-6
0.218, 6.498e-6
0.219, 6.546e-6
0.220, 6.620e-6
0.221, 6.672e-6
0.222, 6.692e-6
0.223, 6.814e-6
0.224, 6.761e-6
0.225, 6.906e-6
0.226, 6.972e-6
0.227, 6.980e-6
0.228, 7.085e-6
0.229, 7.153e-6
0.230, 7.239e-6
0.231, 7.330e-6
0.232, 7.318e-6
0.233, 7.408e-6
0.234, 7.495e-6
0.235, 7.545e-6
0.236, 7.592e-6
0.237, 7.700e-6
0.238, 7.734e-6
0.239, 7.875e-6
0.240, 7.860e-6
0.241, 7.964e-6
0.242, 8.059e-6
0.243, 8.078e-6
0.244, 8.198e-6
0.245, 8.317e-6
0.246, 8.382e-6
0.247, 8.523e-6
0.248, 8.569e-6
0.249, 8.683e-6
0.250, 2.246e-6
0.249, -1.959e-6
0.248, -2.676e-6
0.247, -3.165e-6
0.246, -3.501e-6
0.245, -3.718e-6
0.244, -3.919e-6
0.243, -4.023e-6
0.242, -4.175e-6
0.241, -4.274e-6
0.240, -4.287e-6
0.239, -4.386e-6
0.238, -4.434e-6
0.237, -4.459e-6
0.236, -4.498e-6
0.235, -4.537e-6
0.234, -4.523e-6
0.233, -4.599e-6
0.232, -4.550e-6
0.231, -4.591e-6
0.230, -4.642e-6
0.229, -4.602e-6
0.228, -4.613e-6
0.227, -4.591e-6
0.226, -4.613e-6
0.225, -4.635e-6
0.224, -4.603e-6
0.223, -4.591e-6
0.222, -4.643e-6
0.221, -4.572e-6
0.220, -4.579e-6
0.219, -4.601e-6
0.218, -4.559e-6
0.217, -4.576e-6
0.216, -4.577e-6
0.215, -4.536e-6
0.214, -4.582e-6
0.213, -4.533e-6
0.212, -4.550e-6
0.211, -4.549e-6
0.210, -4.536e-6
0.209, -4.546e-6
0.208, -4.523e-6
0.207, -4.507e-6
0.206, -4.527e-6
0.205, -4.383e-6
0.204, -4.521e-6
0.203, -4.469e-6
0.202, -4.477e-6
0.201, -4.503e-6
0.200, -4.473e-6
0.199, -4.485e-6
0.198, -4.527e-6
0.197, -4.455e-6
0.196, -4.469e-6
0.195, -4.480e-6
0.194, -4.469e-6
0.193, -4.491e-6
0.192, -4.432e-6
0.191, -4.452e-6
0.190, -4.487e-6
0.189, -4.454e-6
0.188, -4.474e-6
0.187, -4.478e-6
0.186, -4.468e-6
0.185, -4.481e-6
0.184, -4.492e-6
0.183, -4.476e-6
0.182, -4.507e-6
0.181, -4.473e-6
0.180, -4.519e-6
0.179, -4.525e-6
0.178, -4.488e-6
0.177, -4.541e-6
0.176, -4.510e-6
0.175, -4.516e-6
0.174, -4.561e-6
0.173, -4.525e-6
0.172, -4.551e-6
0.171, -4.562e-6
0.170, -4.566e-6
0.169, -4.591e-6
0.168, -4.566e-6
0.167, -4.559e-6
0.166, -4.608e-6
0.165, -4.629e-6
0.164, -4.610e-6
0.163, -4.621e-6
0.162, -4.643e-6
0.161, -4.666e-6
0.160, -4.658e-6
0.159, -4.670e-6
0.158, -4.715e-6
0.157, -4.703e-6
0.156, -4.729e-6
0.155, -4.734e-6
0.154, -4.791e-6
0.153, -4.809e-6
0.152, -4.776e-6
0.151, -4.795e-6
0.150, -8.483e-7
0.151, 1.550e-6
0.152, 2.076e-6
0.153, 2.388e-6
0.154, 2.674e-6
0.155, 2.821e-6
0.156, 3.002e-6
0.157, 3.117e-6
0.158, 3.242e-6
0.159, 3.402e-6
0.160, 3.468e-6
0.161, 3.587e-6
0.162, 3.645e-6
0.163, 3.742e-6
0.164, 3.834e-6
0.165, 3.891e-6
0.166, 3.886e-6
0.167, 4.032e-6
0.168, 4.034e-6
0.169, 4.098e-6
0.170, 4.154e-6
0.171, 4.214e-6
0.172, 4.265e-6
0.173, 4.300e-6
0.174, 4.314e-6
0.175, 4.433e-6
0.176, 4.412e-6
0.177, 4.484e-6
0.178, 4.534e-6
0.179, 4.579e-6
0.180, 4.609e-6
0.181, 4.643e-6
0.182, 4.651e-6
0.183, 4.751e-6
0.184, 4.725e-6
0.185, 4.782e-6
0.186, 4.845e-6
0.187, 4.877e-6
0.188, 4.897e-6
0.189, 4.937e-6
0.190, 4.955e-6
0.191, 5.040e-6
0.192, 5.005e-6
0.193, 5.071e-6
0.194, 5.108e-6
0.195, 5.142e-6
0.196, 5.179e-6
0.197, 5.240e-6
0.198, 5.229e-6
0.199, 5.338e-6
0.200, 5.320e-6
0.201, 5.366e-6
0.202, 5.393e-6
0.203, 5.460e-6
0.204, 5.486e-6
0.205, 5.444e-6
0.206, 5.547e-6
0.207, 5.626e-6
0.208, 5.623e-6
0.209, 5.721e-6
0.210, 5.770e-6
0.211, 5.800e-6
0.212, 5.900e-6
0.213, 5.911e-6
0.214, 5.914e-6
0.215, 6.035e-6
0.216, 6.062e-6
0.217, 6.104e-6
0.218, 6.140e-6
0.219, 6.232e-6
0.220, 6.293e-6
0.221, 6.343e-6
0.222, 6.355e-6
0.223, 6.491e-6
0.224, 6.483e-6
0.225, 6.553e-6
0.226, 6.634e-6
0.227, 6.656e-6
0.228, 6.785e-6
0.229, 6.806e-6
0.230, 6.910e-6
0.231, 7.006e-6
0.232, 7.009e-6
0.233, 7.093e-6
0.234, 7.187e-6
0.235, 7.268e-6
0.236, 7.330e-6
0.237, 7.371e-6
0.238, 7.491e-6
0.239, 7.582e-6
0.240, 7.589e-6
0.241, 7.734e-6
0.242, 7.793e-6
0.243, 7.797e-6
0.244, 7.941e-6
0.245, 7.987e-6
0.246, 8.058e-6
0.247, 8.263e-6
0.248, 8.252e-6
0.249, 8.401e-6
0.250, 2.014e-6
0.249, -2.134e-6
0.248, -2.924e-6
0.247, -3.372e-6
0.246, -3.742e-6
0.245, -3.895e-6
0.244, -4.080e-6
0.243, -4.181e-6
0.242, -4.313e-6
0.241, -4.409e-6
0.240, -4.452e-6
0.239, -4.477e-6
0.238, -4.580e-6
0.237, -4.577e-6
0.236, -4.641e-6
0.235, -4.637e-6
0.234, -4.646e-6
0.233, -4.682e-6
0.232, -4.673e-6
0.231, -4.718e-6
0.230, -4.718e-6
0.229, -4.690e-6
0.228, -4.712e-6
0.227, -4.645e-6
0.226, -4.719e-6
0.225, -4.726e-6
0.224, -4.679e-6
0.223, -4.661e-6
0.222, -4.729e-6
0.221, -4.637e-6
0.220, -4.673e-6
0.219, -4.655e-6
0.218, -4.616e-6
0.217, -4.661e-6
0.216, -4.645e-6
0.215, -4.611e-6
0.214, -4.645e-6
0.213, -4.609e-6
0.212, -4.607e-6
0.211, -4.611e-6
0.210, -4.599e-6
0.209, -4.594e-6
0.208, -4.562e-6
0.207, -4.552e-6
0.206, -4.584e-6
0.205, -4.447e-6
0.204, -4.535e-6
0.203, -4.531e-6
0.202, -4.535e-6
0.201, -4.543e-6
0.200, -4.534e-6
0.199, -4.526e-6
0.198, -4.547e-6
0.197, -4.518e-6
0.196, -4.558e-6
0.195, -4.501e-6
0.194, -4.526e-6
0.193, -4.539e-6
0.192, -4.474e-6
0.191, -4.509e-6
0.190, -4.542e-6
0.189, -4.502e-6
0.188, -4.530e-6
0.187, -4.528e-6
0.186, -4.537e-6
0.185, -4.516e-6
0.184, -4.531e-6
0.183, -4.504e-6
0.182, -4.544e-6
0.181, -4.520e-6
0.180, -4.571e-6
0.179, -4.573e-6
0.178, -4.547e-6
0.177, -4.584e-6
0.176, -4.553e-6
0.175, -4.545e-6
0.174, -4.596e-6
0.173, -4.580e-6
0.172, -4.611e-6
0.171, -4.591e-6
0.170, -4.605e-6
0.169, -4.631e-6
0.168, -4.626e-6
0.167, -4.588e-6
0.166, -4.661e-6
0.165, -4.655e-6
0.164, -4.671e-6
0.163, -4.663e-6
0.162, -4.703e-6
0.161, -4.721e-6
0.160, -4.724e-6
0.159, -4.739e-6
0.158, -4.742e-6
0.157, -4.737e-6
0.156, -4.812e-6
0.155, -4.755e-6
0.154, -4.831e-6
0.153, -4.835e-6
0.152, -4.840e-6
0.151, -4.831e-6
0.150, -8.686e-7
0.151, 1.514e-6
0.152, 1.981e-6
0.153, 2.382e-6
0.154, 2.617e-6
0.155, 2.794e-6
0.156, 2.964e-6
0.157, 3.110e-6
0.158, 3.190e-6
0.159, 3.376e-6
0.160, 3.422e-6
0.161, 3.554e-6
0.162, 3.634e-6
0.163, 3.706e-6
0.164, 3.772e-6
0.165, 3.864e-6
0.166, 3.864e-6
0.167, 3.978e-6
0.168, 4.002e-6
0.169, 4.070e-6
0.170, 4.120e-6
0.171, 4.171e-6
0.172, 4.234e-6
0.173, 4.259e-6
0.174, 4.300e-6
0.175, 4.384e-6
0.176, 4.372e-6
0.177, 4.438e-6
0.178, 4.496e-6
0.179, 4.554e-6
0.180, 4.586e-6
0.181, 4.616e-6
0.182, 4.609e-6
0.183, 4.683e-6
0.184, 4.704e-6
0.185, 4.755e-6
0.186, 4.811e-6
0.187, 4.827e-6
0.188, 4.882e-6
0.189, 4.898e-6
0.190, 4.905e-6
0.191, 4.993e-6
0.192, 4.957e-6
0.193, 5.032e-6
0.194, 5.081e-6
0.195, 5.120e-6
0.196, 5.144e-6
0.197, 5.191e-6
0.198, 5.206e-6
0.199, 5.272e-6
0.200, 5.287e-6
0.201, 5.327e-6
0.202, 5.372e-6
0.203, 5.420e-6
0.204, 5.444e-6
0.205, 5.404e-6
0.206, 5.489e-6
0.207, 5.612e-6
0.208, 5.572e-6
0.209, 5.674e-6
0.210, 5.719e-6
0.211, 5.768e-6
0.212, 5.827e-6
0.213, 5.877e-6
0.214, 5.881e-6
0.215, 6.020e-6
0.216, 6.005e-6
0.217, 6.069e-6
0.218, 6.108e-6
0.219, 6.172e-6
0.220, 6.249e-6
0.221, 6.307e-6
0.222, 6.333e-6
0.223, 6.434e-6
0.224, 6.461e-6
0.225, 6.514e-6
0.226, 6.569e-6
0.227, 6.632e-6
0.228, 6.706e-6
0.229, 6.754e-6
0.230, 6.841e-6
0.231, 6.946e-6
0.232, 6.981e-6
0.233, 7.039e-6
0.234, 7.122e-6
0.235, 7.192e-6
0.236, 7.268e-6
0.237, 7.344e-6
0.238, 7.410e-6
0.239, 7.538e-6
0.240, 7.558e-6
0.241, 7.672e-6
0.242, 7.745e-6
0.243, 7.742e-6
0.244, 7.892e-6
0.245, 7.957e-6
0.246, 8.012e-6
0.247, 8.190e-6
0.248, 8.231e-6
0.249, 8.366e-6
0.250, 1.898e-6
0.249, -2.168e-6
0.248, -2.971e-6
0.247, -3.388e-6
0.246, -3.766e-6
0.245, -3.908e-6
0.244, -4.109e-6
0.243, -4.220e-6
0.242, -4.347e-6
0.241, -4.436e-6
0.240, -4.449e-6
0.239, -4.548e-6
0.238, -4.589e-6
0.237, -4.571e-6
0.236, -4.664e-6
0.235, -4.651e-6
0.234, -4.662e-6
0.233, -4.700e-6
0.232, -4.693e-6
0.231, -4.698e-6
0.230, -4.723e-6
0.229, -4.717e-6
0.228, -4.727e-6
0.227, -4.692e-6
0.226, -4.722e-6
0.225, -4.726e-6
0.224, -4.698e-6
0.223, -4.666e-6
0.222, -4.728e-6
0.221, -4.679e-6
0.220, -4.672e-6
0.219, -4.642e-6
0.218, -4.622e-6
0.217, -4.685e-6
0.216, -4.656e-6
0.215, -4.629e-6
0.214, -4.651e-6
0.213, -4.604e-6
0.212, -4.614e-6
0.211, -4.638e-6
0.210, -4.603e-6
0.209, -4.631e-6
0.208, -4.555e-6
0.207, -4.564e-6
0.206, -4.601e-6
0.205, -4.436e-6
0.204, -4.559e-6
0.203, -4.540e-6
0.202, -4.539e-6
0.201, -4.555e-6
0.200, -4.530e-6
0.199, -4.523e-6
0.198, -4.564e-6
0.197, -4.529e-6
0.196, -4.539e-6
0.195, -4.520e-6
0.194, -4.506e-6
0.193, -4.552e-6
0.192, -4.481e-6
0.191, -4.531e-6
0.190, -4.535e-6
0.189, -4.503e-6
0.188, -4.533e-6
0.187, -4.536e-6
0.186, -4.523e-6
0.185, -4.547e-6
0.184, -4.534e-6
0.183, -4.541e-6
0.182, -4.559e-6
0.181, -4.527e-6
0.180, -4.561e-6
0.179, -4.574e-6
0.178, -4.548e-6
0.177, -4.585e-6
0.176, -4.540e-6
0.175, -4.591e-6
0.174, -4.594e-6
0.173, -4.595e-6
0.172, -4.607e-6
0.171, -4.600e-6
0.170, -4.601e-6
0.169, -4.634e-6
0.168, -4.644e-6
0.167, -4.599e-6
0.166, -4.677e-6
0.165, -4.639e-6
0.164, -4.687e-6
0.163, -4.696e-6
0.162, -4.698e-6
0.161, -4.748e-6
0.160, -4.740e-6
0.159, -4.725e-6
0.158, -4.793e-6
0.157, -4.748e-6
0.156, -4.787e-6
0.155, -4.794e-6
0.154, -4.843e-6
0.153, -4.853e-6
0.152, -4.829e-6
0.151, -4.873e-6
0.150, -8.936e-7
0.151, 1.499e-6
0.152, 2.007e-6
0.153, 2.366e-6
0.154, 2.580e-6
0.155, 2.796e-6
0.156, 2.950e-6
0.157, 3.085e-6
0.158, 3.198e-6
0.159, 3.356e-6
0.160, 3.428e-6
0.161, 3.535e-6
0.162, 3.613e-6
0.163, 3.698e-6
0.164, 3.791e-6
0.165, 3.821e-6
0.166, 3.859e-6
0.167, 3.972e-6
0.168, 3.990e-6
0.169, 4.050e-6
0.170, 4.096e-6
0.171, 4.164e-6
0.172, 4.220e-6
0.173, 4.271e-6
0.174, 4.275e-6
0.175, 4.385e-6
0.176, 4.366e-6
0.177, 4.441e-6
0.178, 4.491e-6
0.179, 4.555e-6
0.180, 4.548e-6
0.181, 4.589e-6
0.182, 4.598e-6
0.183, 4.701e-6
0.184, 4.676e-6
0.185, 4.761e-6
0.186, 4.773e-6
0.187, 4.831e-6
0.188, 4.864e-6
0.189, 4.885e-6
0.190, 4.915e-6
0.191, 5.012e-6
0.192, 4.909e-6
0.193, 5.031e-6
0.194, 5.065e-6
0.195, 5.090e-6
0.196, 5.153e-6
0.197, 5.147e-6
0.198, 5.196e-6
0.199, 5.282e-6
0.200, 5.280e-6
0.201, 5.290e-6
0.202, 5.349e-6
0.203, 5.408e-6
0.204, 5.429e-6
0.205, 5.374e-6
0.206, 5.491e-6
0.207, 5.583e-6
0.208, 5.566e-6
0.209, 5.655e-6
0.210, 5.700e-6
0.211, 5.742e-6
0.212, 5.809e-6
0.213, 5.860e-6
0.214, 5.858e-6
0.215, 6.007e-6
0.216, 6.001e-6
0.217, 6.022e-6
0.218, 6.090e-6
0.219, 6.164e-6
0.220, 6.232e-6
0.221, 6.254e-6
0.222, 6.307e-6
0.223, 6.421e-6
0.224, 6.417e-6
0.225, 6.525e-6
0.226, 6.543e-6
0.227, 6.635e-6
0.228, 6.658e-6
0.229, 6.721e-6
0.230, 6.810e-6
0.231, 6.952e-6
0.232, 6.917e-6
0.233, 7.034e-6
0.234, 7.080e-6
0.235, 7.193e-6
0.236, 7.250e-6
0.237, 7.347e-6
0.238, 7.380e-6
0.239, 7.502e-6
0.240, 7.524e-6
0.241, 7.659e-6
0.242, 7.704e-6
0.243, 7.724e-6
0.244, 7.876e-6
0.245, 7.908e-6
0.246, 7.975e-6
0.247, 8.168e-6
0.248, 8.143e-6
0.249, 8.309e-6
0.250, 1.944e-6
0.249, -2.205e-6
0.248, -2.959e-6
0.247, -3.402e-6
0.246, -3.784e-6
0.245, -3.934e-6
0.244, -4.134e-6
0.243, -4.212e-6
0.242, -4.320e-6
0.241, -4.434e-6
0.240, -4.487e-6
0.239, -4.533e-6
0.238, -4.564e-6
0.237, -4.622e-6
0.236, -4.658e-6
0.235, -4.636e-6
0.234, -4.639e-6
0.233, -4.729e-6
0.232, -4.666e-6
0.231, -4.711e-6
0.230, -4.730e-6
0.229, -4.728e-6
0.228, -4.695e-6
0.227, -4.715e-6
0.226, -4.702e-6
0.225, -4.722e-6
0.224, -4.730e-6
0.223, -4.665e-6
0.222, -4.719e-6
0.221, -4.658e-6
0.220, -4.693e-6
0.219, -4.682e-6
0.218, -4.612e-6
0.217, -4.673e-6
0.216, -4.632e-6
0.215, -4.630e-6
0.214, -4.650e-6
0.213, -4.592e-6
0.212, -4.619e-6
0.211, -4.613e-6
0.210, -4.598e-6
0.209, -4.607e-6
0.208, -4.594e-6
0.207, -4.566e-6
0.206, -4.587e-6
0.205, -4.452e-6
0.204, -4.570e-6
0.203, -4.527e-6
0.202, -4.541e-6
0.201, -4.563e-6
0.200, -4.516e-6
0.199, -4.530e-6
0.198, -4.560e-6
0.197, -4.531e-6
0.196, -4.541e-6
0.195, -4.508e-6
0.194, -4.553e-6
0.193, -4.526e-6
0.192, -4.476e-6
0.191, -4.505e-6
0.190, -4.531e-6
0.189, -4.522e-6
0.188, -4.537e-6
0.187, -4.526e-6
0.186, -4.515e-6
0.185, -4.546e-6
0.184, -4.518e-6
0.183, -4.517e-6
0.182, -4.569e-6
0.181, -4.516e-6
0.180, -4.574e-6
0.179, -4.557e-6
0.178, -4.573e-6
0.177, -4.582e-6
0.176, -4.559e-6
0.175, -4.562e-6
0.174, -4.633e-6
0.173, -4.582e-6
0.172, -4.613e-6
0.171, -4.606e-6
0.170, -4.635e-6
0.169, -4.655e-6
0.168, -4.630e-6
0.167, -4.602e-6
0.166, -4.644e-6
0.165, -4.655e-6
0.164, -4.701e-6
0.163, -4.673e-6
0.162, -4.712e-6
0.161, -4.750e-6
0.160, -4.729e-6
0.159, -4.755e-6
0.158, -4.793e-6
0.157, -4.751e-6
0.156, -4.804e-6
0.155, -4.823e-6
0.154, -4.841e-6
0.153, -4.869e-6
0.152, -4.869e-6
0.151, -4.840e-6
0.150, -8.873e-7
0.151, 1.508e-6
0.152, 1.968e-6
0.153, 2.343e-6
0.154, 2.580e-6
0.155, 2.805e-6
0.156, 2.956e-6
0.157, 3.070e-6
0.158, 3.209e-6
0.159, 3.348e-6
0.160, 3.423e-6
0.161, 3.550e-6
0.162, 3.613e-6
0.163, 3.713e-6
0.164, 3.759e-6
0.165, 3.831e-6
0.166, 3.840e-6
0.167, 3.964e-6
0.168, 4.002e-6
0.169, 4.071e-6
0.170, 4.100e-6
0.171, 4.152e-6
0.172, 4.204e-6
0.173, 4.279e-6
0.174, 4.277e-6
0.175, 4.380e-6
0.176, 4.359e-6
0.177, 4.423e-6
0.178, 4.474e-6
0.179, 4.548e-6
0.180, 4.576e-6
0.181, 4.567e-6
0.182, 4.605e-6
0.183, 4.691e-6
0.184, 4.683e-6
0.185, 4.749e-6
0.186, 4.788e-6
0.187, 4.815e-6
0.188, 4.840e-6
0.189, 4.861e-6
0.190, 4.883e-6
0.191, 4.988e-6
0.192, 4.906e-6
0.193, 5.037e-6
0.194, 5.047e-6
0.195, 5.083e-6
0.196, 5.123e-6
0.197, 5.154e-6
0.198, 5.198e-6
0.199, 5.259e-6
0.200, 5.251e-6
0.201, 5.333e-6
0.202, 5.356e-6
0.203, 5.386e-6
0.204, 5.422e-6
0.205, 5.360e-6
0.206, 5.489e-6
0.207, 5.577e-6
0.208, 5.552e-6
0.209, 5.638e-6
0.210, 5.684e-6
0.211, 5.742e-6
0.212, 5.784e-6
0.213, 5.846e-6
0.214, 5.834e-6
0.215, 5.968e-6
0.216, 5.993e-6
0.217, 5.997e-6
0.218, 6.092e-6
0.219, 6.143e-6
0.220, 6.200e-6
0.221, 6.262e-6
0.222, 6.299e-6
0.223, 6.375e-6
0.224, 6.396e-6
0.225, 6.495e-6
0.226, 6.543e-6
0.227, 6.597e-6
0.228, 6.682e-6
0.229, 6.726e-6
0.230, 6.830e-6
0.231, 6.888e-6
0.232, 6.927e-6
0.233, 6.992e-6
0.234, 7.086e-6
0.235, 7.161e-6
0.236, 7.249e-6
0.237, 7.304e-6
0.238, 7.367e-6
0.239, 7.496e-6
0.240, 7.505e-6
0.241, 7.606e-6
0.242, 7.701e-6
0.243, 7.734e-6
0.244, 7.841e-6
0.245, 7.904e-6
0.246, 7.965e-6
0.247, 8.142e-6
0.248, 8.155e-6
0.249, 8.309e-6
0.250, 1.894e-6
0.249, -2.200e-6
0.248, -2.983e-6
0.247, -3.427e-6
0.246, -3.754e-6
0.245, -3.920e-6
0.244, -4.173e-6
0.243, -4.194e-6
0.242, -4.346e-6
0.241, -4.434e-6
0.240, -4.449e-6
0.239, -4.548e-6
0.238, -4.602e-6
0.237, -4.582e-6
0.236, -4.673e-6
0.235, -4.641e-6
0.234, -4.628e-6
0.233, -4.683e-6
0.232, -4.706e-6
0.231, -4.713e-6
0.230, -4.752e-6
0.229, -4.698e-6
0.228, -4.713e-6
0.227, -4.721e-6
0.226, -4.723e-6
0.225, -4.705e-6
0.224, -4.686e-6
0.223, -4.695e-6
0.222, -4.707e-6
0.221, -4.651e-6
0.220, -4.692e-6
0.219, -4.676e-6
0.218, -4.644e-6
0.217, -4.649e-6
0.216, -4.641e-6
0.215, -4.602e-6
0.214, -4.638e-6
0.213, -4.620e-6
0.212, -4.606e-6
0.211, -4.603e-6
0.210, -4.620e-6
0.209, -4.622e-6
0.208, -4.555e-6
0.207, -4.579e-6
0.206, -4.607e-6
0.205, -4.422e-6
0.204, -4.548e-6
0.203, -4.541e-6
0.202, -4.538e-6
0.201, -4.539e-6
0.200, -4.555e-6
0.199, -4.515e-6
0.198, -4.566e-6
0.197, -4.528e-6
0.196, -4.522e-6
0.195, -4.530e-6
0.194, -4.516e-6
0.193, -4.539e-6
0.192, -4.473e-6
0.191, -4.517e-6
0.190, -4.523e-6
0.189, -4.524e-6
0.188, -4.533e-6
0.187, -4.523e-6
0.186, -4.516e-6
0.185, -4.549e-6
0.184, -4.520e-6
0.183, -4.532e-6
0.182, -4.559e-6
0.181, -4.535e-6
0.180, -4.578e-6
0.179, -4.555e-6
0.178, -4.550e-6
0.177, -4.611e-6
0.176, -4.567e-6
0.175, -4.563e-6
0.174, -4.598e-6
0.173, -4.591e-6
0.172, -4.616e-6
0.171, -4.617e-6
0.170, -4.586e-6
0.169, -4.622e-6
0.168, -4.644e-6
0.167, -4.626e-6
0.166, -4.671e-6
0.165, -4.658e-6
0.164, -4.703e-6
0.163, -4.693e-6
0.162, -4.682e-6
0.161, -4.733e-6
0.160, -4.762e-6
0.159, -4.726e-6
0.158, -4.784e-6
0.157, -4.770e-6
0.156, -4.815e-6
0.155, -4.816e-6
0.154, -4.838e-6
0.153, -4.873e-6
0.152, -4.851e-6
0.151, -4.888e-6
