Sept. 9, 2026   18:11:39
Cyclic Voltammetry
File: d:\desktop\sample\ni foil\ni_foil_cv 40 mv.bin
Data Source:  Experiment
Instrument Model:  CHI660D
Header: 
Note: 

Init E (V) = 0.15
High E (V) = 0.25
Low E (V) = 0.15
Init P/N = P
Scan Rate (V/s) = 0.04
Segment = 20
Sample Interval (V) = 0.001
Quiet Time (sec) = 10
Sensitivity (A/V) = 0.001

Results:

Channel 1:
Segment 1:

Segment 2:

Segment 3:

Segment 4:

Segment 5:

Segment 6:

Segment 7:

Segment 8:

Segment 9:

Segment 10:

Segment 11:

Segment 12:

Segment 13:

Segment 14:

Segment 15:

Segment 16:

Segment 17:

Segment 18:

Segment 19:

Segment 20:

Potential/V, Current/A

0.150, 2.706e-6
0.151, 5.736e-6
0.152, 6.244e-6
0.153, 6.547e-6
0.154, 6.853e-6
0.155, 7.010e-6
0.156, 7.205e-6
0.157, 7.316e-6
0.158, 7.472e-6
0.159, 7.603e-6
0.160, 7.681e-6
0.161, 7.804e-6
0.162, 7.876e-6
0.163, 7.945e-6
0.164, 8.048e-6
0.165, 8.117e-6
0.166, 8.140e-6
0.167, 8.295e-6
0.168, 8.352e-6
0.169, 8.469e-6
0.170, 8.534e-6
0.171, 8.598e-6
0.172, 8.659e-6
0.173, 8.719e-6
0.174, 8.767e-6
0.175, 8.897e-6
0.176, 8.867e-6
0.177, 8.987e-6
0.178, 9.005e-6
0.179, 9.119e-6
0.180, 9.155e-6
0.181, 9.197e-6
0.182, 9.221e-6
0.183, 9.314e-6
0.184, 9.333e-6
0.185, 9.451e-6
0.186, 9.486e-6
0.187, 9.533e-6
0.188, 9.626e-6
0.189, 9.626e-6
0.190, 9.736e-6
0.191, 9.804e-6
0.192, 9.740e-6
0.193, 9.904e-6
0.194, 9.947e-6
0.195, 1.002e-5
0.196, 1.006e-5
0.197, 1.015e-5
0.198, 1.023e-5
0.199, 1.033e-5
0.200, 1.031e-5
0.201, 1.043e-5
0.202, 1.050e-5
0.203, 1.053e-5
0.204, 1.064e-5
0.205, 1.046e-5
0.206, 1.076e-5
0.207, 1.090e-5
0.208, 1.086e-5
0.209, 1.107e-5
0.210, 1.112e-5
0.211, 1.118e-5
0.212, 1.130e-5
0.213, 1.136e-5
0.214, 1.147e-5
0.215, 1.150e-5
0.216, 1.156e-5
0.217, 1.171e-5
0.218, 1.173e-5
0.219, 1.186e-5
0.220, 1.196e-5
0.221, 1.209e-5
0.222, 1.223e-5
0.223, 1.229e-5
0.224, 1.238e-5
0.225, 1.254e-5
0.226, 1.261e-5
0.227, 1.269e-5
0.228, 1.278e-5
0.229, 1.289e-5
0.230, 1.306e-5
0.231, 1.323e-5
0.232, 1.325e-5
0.233, 1.349e-5
0.234, 1.352e-5
0.235, 1.373e-5
0.236, 1.383e-5
0.237, 1.398e-5
0.238, 1.405e-5
0.239, 1.427e-5
0.240, 1.433e-5
0.241, 1.451e-5
0.242, 1.462e-5
0.243, 1.470e-5
0.244, 1.485e-5
0.245, 1.512e-5
0.246, 1.526e-5
0.247, 1.537e-5
0.248, 1.555e-5
0.249, 1.574e-5
0.250, 7.935e-6
0.249, -2.532e-6
0.248, -4.606e-6
0.247, -5.708e-6
0.246, -6.364e-6
0.245, -6.930e-6
0.244, -7.337e-6
0.243, -7.564e-6
0.242, -7.894e-6
0.241, -8.118e-6
0.240, -8.198e-6
0.239, -8.390e-6
0.238, -8.509e-6
0.237, -8.626e-6
0.236, -8.677e-6
0.235, -8.764e-6
0.234, -8.750e-6
0.233, -8.892e-6
0.232, -8.873e-6
0.231, -8.943e-6
0.230, -8.994e-6
0.229, -8.953e-6
0.228, -8.978e-6
0.227, -8.916e-6
0.226, -8.965e-6
0.225, -8.997e-6
0.224, -8.940e-6
0.223, -8.983e-6
0.222, -8.984e-6
0.221, -8.913e-6
0.220, -8.958e-6
0.219, -8.905e-6
0.218, -8.836e-6
0.217, -8.873e-6
0.216, -8.876e-6
0.215, -8.874e-6
0.214, -8.829e-6
0.213, -8.801e-6
0.212, -8.849e-6
0.211, -8.758e-6
0.210, -8.773e-6
0.209, -8.787e-6
0.208, -8.696e-6
0.207, -8.754e-6
0.206, -8.737e-6
0.205, -8.450e-6
0.204, -8.648e-6
0.203, -8.613e-6
0.202, -8.599e-6
0.201, -8.641e-6
0.200, -8.632e-6
0.199, -8.609e-6
0.198, -8.645e-6
0.197, -8.584e-6
0.196, -8.597e-6
0.195, -8.534e-6
0.194, -8.534e-6
0.193, -8.586e-6
0.192, -8.475e-6
0.191, -8.522e-6
0.190, -8.519e-6
0.189, -8.523e-6
0.188, -8.537e-6
0.187, -8.508e-6
0.186, -8.509e-6
0.185, -8.555e-6
0.184, -8.500e-6
0.183, -8.544e-6
0.182, -8.494e-6
0.181, -8.537e-6
0.180, -8.564e-6
0.179, -8.561e-6
0.178, -8.558e-6
0.177, -8.599e-6
0.176, -8.525e-6
0.175, -8.571e-6
0.174, -8.566e-6
0.173, -8.573e-6
0.172, -8.631e-6
0.171, -8.576e-6
0.170, -8.626e-6
0.169, -8.651e-6
0.168, -8.648e-6
0.167, -8.614e-6
0.166, -8.628e-6
0.165, -8.673e-6
0.164, -8.701e-6
0.163, -8.646e-6
0.162, -8.741e-6
0.161, -8.805e-6
0.160, -8.756e-6
0.159, -8.819e-6
0.158, -8.808e-6
0.157, -8.855e-6
0.156, -8.883e-6
0.155, -8.862e-6
0.154, -8.939e-6
0.153, -8.949e-6
0.152, -8.934e-6
0.151, -8.986e-6
0.150, -3.936e-6
0.151, 2.231e-6
0.152, 3.228e-6
0.153, 3.933e-6
0.154, 4.394e-6
0.155, 4.780e-6
0.156, 5.108e-6
0.157, 5.333e-6
0.158, 5.592e-6
0.159, 5.836e-6
0.160, 6.009e-6
0.161, 6.232e-6
0.162, 6.336e-6
0.163, 6.454e-6
0.164, 6.624e-6
0.165, 6.753e-6
0.166, 6.797e-6
0.167, 6.978e-6
0.168, 7.101e-6
0.169, 7.188e-6
0.170, 7.269e-6
0.171, 7.409e-6
0.172, 7.538e-6
0.173, 7.599e-6
0.174, 7.642e-6
0.175, 7.738e-6
0.176, 7.787e-6
0.177, 7.922e-6
0.178, 7.946e-6
0.179, 8.062e-6
0.180, 8.137e-6
0.181, 8.176e-6
0.182, 8.256e-6
0.183, 8.373e-6
0.184, 8.414e-6
0.185, 8.519e-6
0.186, 8.577e-6
0.187, 8.657e-6
0.188, 8.721e-6
0.189, 8.781e-6
0.190, 8.840e-6
0.191, 8.903e-6
0.192, 8.912e-6
0.193, 9.056e-6
0.194, 9.083e-6
0.195, 9.173e-6
0.196, 9.233e-6
0.197, 9.287e-6
0.198, 9.405e-6
0.199, 9.475e-6
0.200, 9.519e-6
0.201, 9.612e-6
0.202, 9.693e-6
0.203, 9.729e-6
0.204, 9.852e-6
0.205, 9.681e-6
0.206, 9.947e-6
0.207, 1.006e-5
0.208, 1.010e-5
0.209, 1.024e-5
0.210, 1.030e-5
0.211, 1.039e-5
0.212, 1.052e-5
0.213, 1.053e-5
0.214, 1.065e-5
0.215, 1.077e-5
0.216, 1.088e-5
0.217, 1.101e-5
0.218, 1.097e-5
0.219, 1.116e-5
0.220, 1.129e-5
0.221, 1.134e-5
0.222, 1.147e-5
0.223, 1.157e-5
0.224, 1.169e-5
0.225, 1.188e-5
0.226, 1.188e-5
0.227, 1.200e-5
0.228, 1.221e-5
0.229, 1.225e-5
0.230, 1.241e-5
0.231, 1.260e-5
0.232, 1.260e-5
0.233, 1.272e-5
0.234, 1.283e-5
0.235, 1.300e-5
0.236, 1.321e-5
0.237, 1.328e-5
0.238, 1.342e-5
0.239, 1.363e-5
0.240, 1.370e-5
0.241, 1.395e-5
0.242, 1.399e-5
0.243, 1.406e-5
0.244, 1.434e-5
0.245, 1.448e-5
0.246, 1.464e-5
0.247, 1.484e-5
0.248, 1.495e-5
0.249, 1.516e-5
0.250, 7.392e-6
0.249, -3.097e-6
0.248, -5.069e-6
0.247, -6.145e-6
0.246, -6.826e-6
0.245, -7.294e-6
0.244, -7.788e-6
0.243, -7.849e-6
0.242, -8.278e-6
0.241, -8.452e-6
0.240, -8.580e-6
0.239, -8.707e-6
0.238, -8.842e-6
0.237, -8.944e-6
0.236, -8.987e-6
0.235, -9.048e-6
0.234, -9.038e-6
0.233, -9.144e-6
0.232, -9.094e-6
0.231, -9.191e-6
0.230, -9.244e-6
0.229, -9.204e-6
0.228, -9.200e-6
0.227, -9.138e-6
0.226, -9.191e-6
0.225, -9.140e-6
0.224, -9.153e-6
0.223, -9.168e-6
0.222, -9.128e-6
0.221, -9.107e-6
0.220, -9.140e-6
0.219, -9.114e-6
0.218, -9.018e-6
0.217, -9.044e-6
0.216, -9.027e-6
0.215, -8.994e-6
0.214, -8.968e-6
0.213, -8.987e-6
0.212, -8.995e-6
0.211, -8.945e-6
0.210, -8.902e-6
0.209, -8.951e-6
0.208, -8.844e-6
0.207, -8.886e-6
0.206, -8.844e-6
0.205, -8.642e-6
0.204, -8.794e-6
0.203, -8.739e-6
0.202, -8.780e-6
0.201, -8.801e-6
0.200, -8.730e-6
0.199, -8.739e-6
0.198, -8.710e-6
0.197, -8.743e-6
0.196, -8.730e-6
0.195, -8.624e-6
0.194, -8.648e-6
0.193, -8.726e-6
0.192, -8.590e-6
0.191, -8.647e-6
0.190, -8.694e-6
0.189, -8.661e-6
0.188, -8.643e-6
0.187, -8.619e-6
0.186, -8.644e-6
0.185, -8.670e-6
0.184, -8.615e-6
0.183, -8.626e-6
0.182, -8.612e-6
0.181, -8.648e-6
0.180, -8.703e-6
0.179, -8.690e-6
0.178, -8.656e-6
0.177, -8.702e-6
0.176, -8.638e-6
0.175, -8.672e-6
0.174, -8.700e-6
0.173, -8.694e-6
0.172, -8.720e-6
0.171, -8.712e-6
0.170, -8.723e-6
0.169, -8.761e-6
0.168, -8.751e-6
0.167, -8.747e-6
0.166, -8.739e-6
0.165, -8.788e-6
0.164, -8.845e-6
0.163, -8.825e-6
0.162, -8.857e-6
0.161, -8.926e-6
0.160, -8.901e-6
0.159, -8.943e-6
0.158, -8.916e-6
0.157, -8.945e-6
0.156, -9.011e-6
0.155, -8.987e-6
0.154, -9.060e-6
0.153, -9.095e-6
0.152, -9.080e-6
0.151, -9.103e-6
0.150, -4.028e-6
0.151, 2.148e-6
0.152, 3.126e-6
0.153, 3.871e-6
0.154, 4.341e-6
0.155, 4.692e-6
0.156, 5.027e-6
0.157, 5.266e-6
0.158, 5.518e-6
0.159, 5.771e-6
0.160, 5.935e-6
0.161, 6.144e-6
0.162, 6.263e-6
0.163, 6.410e-6
0.164, 6.567e-6
0.165, 6.684e-6
0.166, 6.762e-6
0.167, 6.898e-6
0.168, 6.978e-6
0.169, 7.168e-6
0.170, 7.210e-6
0.171, 7.323e-6
0.172, 7.418e-6
0.173, 7.543e-6
0.174, 7.606e-6
0.175, 7.698e-6
0.176, 7.723e-6
0.177, 7.866e-6
0.178, 7.908e-6
0.179, 7.997e-6
0.180, 8.074e-6
0.181, 8.114e-6
0.182, 8.170e-6
0.183, 8.302e-6
0.184, 8.296e-6
0.185, 8.489e-6
0.186, 8.487e-6
0.187, 8.580e-6
0.188, 8.662e-6
0.189, 8.712e-6
0.190, 8.764e-6
0.191, 8.869e-6
0.192, 8.849e-6
0.193, 8.983e-6
0.194, 9.024e-6
0.195, 9.112e-6
0.196, 9.178e-6
0.197, 9.212e-6
0.198, 9.284e-6
0.199, 9.445e-6
0.200, 9.443e-6
0.201, 9.551e-6
0.202, 9.579e-6
0.203, 9.673e-6
0.204, 9.751e-6
0.205, 9.638e-6
0.206, 9.880e-6
0.207, 1.001e-5
0.208, 1.000e-5
0.209, 1.017e-5
0.210, 1.026e-5
0.211, 1.029e-5
0.212, 1.043e-5
0.213, 1.050e-5
0.214, 1.057e-5
0.215, 1.072e-5
0.216, 1.076e-5
0.217, 1.088e-5
0.218, 1.091e-5
0.219, 1.108e-5
0.220, 1.122e-5
0.221, 1.126e-5
0.222, 1.138e-5
0.223, 1.150e-5
0.224, 1.159e-5
0.225, 1.174e-5
0.226, 1.178e-5
0.227, 1.192e-5
0.228, 1.208e-5
0.229, 1.217e-5
0.230, 1.234e-5
0.231, 1.250e-5
0.232, 1.252e-5
0.233, 1.265e-5
0.234, 1.274e-5
0.235, 1.287e-5
0.236, 1.303e-5
0.237, 1.317e-5
0.238, 1.331e-5
0.239, 1.349e-5
0.240, 1.362e-5
0.241, 1.382e-5
0.242, 1.393e-5
0.243, 1.399e-5
0.244, 1.417e-5
0.245, 1.441e-5
0.246, 1.456e-5
0.247, 1.473e-5
0.248, 1.482e-5
0.249, 1.502e-5
0.250, 7.251e-6
0.249, -3.103e-6
0.248, -5.096e-6
0.247, -6.266e-6
0.246, -6.941e-6
0.245, -7.367e-6
0.244, -7.818e-6
0.243, -7.984e-6
0.242, -8.277e-6
0.241, -8.552e-6
0.240, -8.581e-6
0.239, -8.829e-6
0.238, -8.855e-6
0.237, -8.963e-6
0.236, -9.066e-6
0.235, -9.045e-6
0.234, -9.147e-6
0.233, -9.196e-6
0.232, -9.183e-6
0.231, -9.265e-6
0.230, -9.249e-6
0.229, -9.212e-6
0.228, -9.235e-6
0.227, -9.205e-6
0.226, -9.219e-6
0.225, -9.209e-6
0.224, -9.186e-6
0.223, -9.191e-6
0.222, -9.220e-6
0.221, -9.088e-6
0.220, -9.155e-6
0.219, -9.080e-6
0.218, -9.073e-6
0.217, -9.110e-6
0.216, -9.056e-6
0.215, -9.064e-6
0.214, -9.008e-6
0.213, -8.994e-6
0.212, -9.030e-6
0.211, -9.007e-6
0.210, -8.916e-6
0.209, -8.941e-6
0.208, -8.866e-6
0.207, -8.905e-6
0.206, -8.892e-6
0.205, -8.648e-6
0.204, -8.819e-6
0.203, -8.793e-6
0.202, -8.797e-6
0.201, -8.807e-6
0.200, -8.781e-6
0.199, -8.758e-6
0.198, -8.749e-6
0.197, -8.744e-6
0.196, -8.728e-6
0.195, -8.675e-6
0.194, -8.713e-6
0.193, -8.736e-6
0.192, -8.607e-6
0.191, -8.691e-6
0.190, -8.696e-6
0.189, -8.648e-6
0.188, -8.700e-6
0.187, -8.669e-6
0.186, -8.670e-6
0.185, -8.618e-6
0.184, -8.685e-6
0.183, -8.654e-6
0.182, -8.682e-6
0.181, -8.688e-6
0.180, -8.709e-6
0.179, -8.733e-6
0.178, -8.674e-6
0.177, -8.723e-6
0.176, -8.691e-6
0.175, -8.701e-6
0.174, -8.712e-6
0.173, -8.723e-6
0.172, -8.759e-6
0.171, -8.744e-6
0.170, -8.772e-6
0.169, -8.780e-6
0.168, -8.770e-6
0.167, -8.784e-6
0.166, -8.754e-6
0.165, -8.831e-6
0.164, -8.873e-6
0.163, -8.845e-6
0.162, -8.874e-6
0.161, -8.970e-6
0.160, -8.957e-6
0.159, -8.969e-6
0.158, -8.948e-6
0.157, -8.983e-6
0.156, -9.047e-6
0.155, -9.018e-6
0.154, -9.086e-6
0.153, -9.122e-6
0.152, -9.102e-6
0.151, -9.143e-6
0.150, -4.078e-6
0.151, 2.121e-6
0.152, 3.135e-6
0.153, 3.843e-6
0.154, 4.275e-6
0.155, 4.651e-6
0.156, 5.042e-6
0.157, 5.260e-6
0.158, 5.483e-6
0.159, 5.716e-6
0.160, 5.937e-6
0.161, 6.115e-6
0.162, 6.254e-6
0.163, 6.371e-6
0.164, 6.550e-6
0.165, 6.639e-6
0.166, 6.739e-6
0.167, 6.873e-6
0.168, 6.992e-6
0.169, 7.143e-6
0.170, 7.211e-6
0.171, 7.341e-6
0.172, 7.421e-6
0.173, 7.489e-6
0.174, 7.595e-6
0.175, 7.677e-6
0.176, 7.723e-6
0.177, 7.869e-6
0.178, 7.846e-6
0.179, 7.980e-6
0.180, 8.008e-6
0.181, 8.114e-6
0.182, 8.184e-6
0.183, 8.245e-6
0.184, 8.312e-6
0.185, 8.428e-6
0.186, 8.463e-6
0.187, 8.549e-6
0.188, 8.659e-6
0.189, 8.678e-6
0.190, 8.747e-6
0.191, 8.851e-6
0.192, 8.813e-6
0.193, 8.916e-6
0.194, 8.985e-6
0.195, 9.042e-6
0.196, 9.193e-6
0.197, 9.162e-6
0.198, 9.280e-6
0.199, 9.413e-6
0.200, 9.412e-6
0.201, 9.498e-6
0.202, 9.554e-6
0.203, 9.634e-6
0.204, 9.752e-6
0.205, 9.601e-6
0.206, 9.870e-6
0.207, 9.987e-6
0.208, 9.980e-6
0.209, 1.014e-5
0.210, 1.023e-5
0.211, 1.029e-5
0.212, 1.039e-5
0.213, 1.046e-5
0.214, 1.056e-5
0.215, 1.065e-5
0.216, 1.072e-5
0.217, 1.081e-5
0.218, 1.088e-5
0.219, 1.104e-5
0.220, 1.119e-5
0.221, 1.124e-5
0.222, 1.133e-5
0.223, 1.149e-5
0.224, 1.153e-5
0.225, 1.169e-5
0.226, 1.178e-5
0.227, 1.186e-5
0.228, 1.202e-5
0.229, 1.213e-5
0.230, 1.233e-5
0.231, 1.244e-5
0.232, 1.249e-5
0.233, 1.265e-5
0.234, 1.272e-5
0.235, 1.282e-5
0.236, 1.301e-5
0.237, 1.313e-5
0.238, 1.325e-5
0.239, 1.348e-5
0.240, 1.354e-5
0.241, 1.378e-5
0.242, 1.390e-5
0.243, 1.393e-5
0.244, 1.415e-5
0.245, 1.430e-5
0.246, 1.445e-5
0.247, 1.465e-5
0.248, 1.482e-5
0.249, 1.503e-5
0.250, 7.222e-6
0.249, -3.229e-6
0.248, -5.147e-6
0.247, -6.307e-6
0.246, -6.928e-6
0.245, -7.407e-6
0.244, -7.869e-6
0.243, -8.020e-6
0.242, -8.340e-6
0.241, -8.552e-6
0.240, -8.622e-6
0.239, -8.823e-6
0.238, -8.921e-6
0.237, -8.969e-6
0.236, -9.076e-6
0.235, -9.098e-6
0.234, -9.135e-6
0.233, -9.198e-6
0.232, -9.180e-6
0.231, -9.226e-6
0.230, -9.280e-6
0.229, -9.251e-6
0.228, -9.251e-6
0.227, -9.158e-6
0.226, -9.182e-6
0.225, -9.274e-6
0.224, -9.235e-6
0.223, -9.240e-6
0.222, -9.176e-6
0.221, -9.140e-6
0.220, -9.161e-6
0.219, -9.146e-6
0.218, -9.054e-6
0.217, -9.090e-6
0.216, -9.080e-6
0.215, -9.076e-6
0.214, -9.040e-6
0.213, -8.985e-6
0.212, -9.027e-6
0.211, -8.964e-6
0.210, -8.975e-6
0.209, -8.898e-6
0.208, -8.903e-6
0.207, -8.927e-6
0.206, -8.879e-6
0.205, -8.709e-6
0.204, -8.812e-6
0.203, -8.812e-6
0.202, -8.804e-6
0.201, -8.787e-6
0.200, -8.768e-6
0.199, -8.806e-6
0.198, -8.789e-6
0.197, -8.719e-6
0.196, -8.744e-6
0.195, -8.703e-6
0.194, -8.738e-6
0.193, -8.737e-6
0.192, -8.598e-6
0.191, -8.677e-6
0.190, -8.709e-6
0.189, -8.674e-6
0.188, -8.701e-6
0.187, -8.645e-6
0.186, -8.713e-6
0.185, -8.676e-6
0.184, -8.701e-6
0.183, -8.676e-6
0.182, -8.689e-6
0.181, -8.651e-6
0.180, -8.733e-6
0.179, -8.726e-6
0.178, -8.698e-6
0.177, -8.727e-6
0.176, -8.687e-6
0.175, -8.731e-6
0.174, -8.716e-6
0.173, -8.762e-6
0.172, -8.761e-6
0.171, -8.721e-6
0.170, -8.814e-6
0.169, -8.788e-6
0.168, -8.766e-6
0.167, -8.773e-6
0.166, -8.818e-6
0.165, -8.838e-6
0.164, -8.883e-6
0.163, -8.870e-6
0.162, -8.887e-6
0.161, -8.985e-6
0.160, -8.969e-6
0.159, -8.973e-6
0.158, -8.974e-6
0.157, -9.002e-6
0.156, -9.083e-6
0.155, -9.058e-6
0.154, -9.105e-6
0.153, -9.142e-6
0.152, -9.112e-6
0.151, -9.175e-6
0.150, -4.079e-6
0.151, 2.110e-6
0.152, 3.146e-6
0.153, 3.807e-6
0.154, 4.275e-6
0.155, 4.651e-6
0.156, 4.987e-6
0.157, 5.237e-6
0.158, 5.516e-6
0.159, 5.738e-6
0.160, 5.864e-6
0.161, 6.115e-6
0.162, 6.239e-6
0.163, 6.377e-6
0.164, 6.564e-6
0.165, 6.655e-6
0.166, 6.710e-6
0.167, 6.875e-6
0.168, 6.999e-6
0.169, 7.135e-6
0.170, 7.183e-6
0.171, 7.325e-6
0.172, 7.437e-6
0.173, 7.490e-6
0.174, 7.553e-6
0.175, 7.687e-6
0.176, 7.695e-6
0.177, 7.819e-6
0.178, 7.888e-6
0.179, 7.978e-6
0.180, 8.027e-6
0.181, 8.066e-6
0.182, 8.170e-6
0.183, 8.242e-6
0.184, 8.273e-6
0.185, 8.440e-6
0.186, 8.444e-6
0.187, 8.528e-6
0.188, 8.630e-6
0.189, 8.651e-6
0.190, 8.726e-6
0.191, 8.873e-6
0.192, 8.787e-6
0.193, 8.944e-6
0.194, 9.020e-6
0.195, 9.056e-6
0.196, 9.120e-6
0.197, 9.159e-6
0.198, 9.269e-6
0.199, 9.371e-6
0.200, 9.346e-6
0.201, 9.486e-6
0.202, 9.568e-6
0.203, 9.608e-6
0.204, 9.766e-6
0.205, 9.576e-6
0.206, 9.808e-6
0.207, 9.929e-6
0.208, 1.000e-5
0.209, 1.013e-5
0.210, 1.017e-5
0.211, 1.027e-5
0.212, 1.039e-5
0.213, 1.043e-5
0.214, 1.053e-5
0.215, 1.067e-5
0.216, 1.070e-5
0.217, 1.080e-5
0.218, 1.081e-5
0.219, 1.103e-5
0.220, 1.116e-5
0.221, 1.122e-5
0.222, 1.132e-5
0.223, 1.145e-5
0.224, 1.153e-5
0.225, 1.168e-5
0.226, 1.177e-5
0.227, 1.182e-5
0.228, 1.202e-5
0.229, 1.209e-5
0.230, 1.225e-5
0.231, 1.244e-5
0.232, 1.246e-5
0.233, 1.260e-5
0.234, 1.269e-5
0.235, 1.282e-5
0.236, 1.303e-5
0.237, 1.305e-5
0.238, 1.327e-5
0.239, 1.342e-5
0.240, 1.354e-5
0.241, 1.376e-5
0.242, 1.385e-5
0.243, 1.393e-5
0.244, 1.416e-5
0.245, 1.422e-5
0.246, 1.449e-5
0.247, 1.464e-5
0.248, 1.474e-5
0.249, 1.496e-5
0.250, 7.149e-6
0.249, -3.238e-6
0.248, -5.130e-6
0.247, -6.286e-6
0.246, -6.931e-6
0.245, -7.470e-6
0.244, -7.864e-6
0.243, -8.021e-6
0.242, -8.360e-6
0.241, -8.561e-6
0.240, -8.603e-6
0.239, -8.833e-6
0.238, -8.916e-6
0.237, -9.026e-6
0.236, -9.094e-6
0.235, -9.120e-6
0.234, -9.078e-6
0.233, -9.184e-6
0.232, -9.215e-6
0.231, -9.287e-6
0.230, -9.244e-6
0.229, -9.194e-6
0.228, -9.288e-6
0.227, -9.194e-6
0.226, -9.211e-6
0.225, -9.226e-6
0.224, -9.210e-6
0.223, -9.206e-6
0.222, -9.162e-6
0.221, -9.147e-6
0.220, -9.180e-6
0.219, -9.098e-6
0.218, -9.098e-6
0.217, -9.105e-6
0.216, -9.037e-6
0.215, -9.050e-6
0.214, -9.031e-6
0.213, -8.983e-6
0.212, -9.011e-6
0.211, -9.004e-6
0.210, -8.973e-6
0.209, -8.958e-6
0.208, -8.893e-6
0.207, -8.876e-6
0.206, -8.916e-6
0.205, -8.653e-6
0.204, -8.807e-6
0.203, -8.842e-6
0.202, -8.797e-6
0.201, -8.837e-6
0.200, -8.799e-6
0.199, -8.761e-6
0.198, -8.754e-6
0.197, -8.727e-6
0.196, -8.759e-6
0.195, -8.682e-6
0.194, -8.740e-6
0.193, -8.709e-6
0.192, -8.598e-6
0.191, -8.753e-6
0.190, -8.669e-6
0.189, -8.664e-6
0.188, -8.671e-6
0.187, -8.694e-6
0.186, -8.709e-6
0.185, -8.720e-6
0.184, -8.644e-6
0.183, -8.668e-6
0.182, -8.669e-6
0.181, -8.677e-6
0.180, -8.729e-6
0.179, -8.784e-6
0.178, -8.706e-6
0.177, -8.732e-6
0.176, -8.648e-6
0.175, -8.762e-6
0.174, -8.765e-6
0.173, -8.748e-6
0.172, -8.762e-6
0.171, -8.768e-6
0.170, -8.746e-6
0.169, -8.810e-6
0.168, -8.808e-6
0.167, -8.781e-6
0.166, -8.793e-6
0.165, -8.869e-6
0.164, -8.902e-6
0.163, -8.870e-6
0.162, -8.880e-6
0.161, -8.969e-6
0.160, -8.953e-6
0.159, -8.976e-6
0.158, -8.981e-6
0.157, -9.055e-6
0.156, -9.026e-6
0.155, -9.062e-6
0.154, -9.114e-6
0.153, -9.166e-6
0.152, -9.140e-6
0.151, -9.169e-6
0.150, -4.072e-6
0.151, 2.089e-6
0.152, 3.135e-6
0.153, 3.831e-6
0.154, 4.291e-6
0.155, 4.596e-6
0.156, 4.958e-6
0.157, 5.240e-6
0.158, 5.509e-6
0.159, 5.714e-6
0.160, 5.912e-6
0.161, 6.105e-6
0.162, 6.222e-6
0.163, 6.371e-6
0.164, 6.533e-6
0.165, 6.645e-6
0.166, 6.739e-6
0.167, 6.839e-6
0.168, 7.010e-6
0.169, 7.103e-6
0.170, 7.221e-6
0.171, 7.310e-6
0.172, 7.377e-6
0.173, 7.467e-6
0.174, 7.551e-6
0.175, 7.670e-6
0.176, 7.702e-6
0.177, 7.805e-6
0.178, 7.874e-6
0.179, 7.978e-6
0.180, 8.015e-6
0.181, 8.055e-6
0.182, 8.108e-6
0.183, 8.279e-6
0.184, 8.261e-6
0.185, 8.398e-6
0.186, 8.461e-6
0.187, 8.541e-6
0.188, 8.618e-6
0.189, 8.630e-6
0.190, 8.703e-6
0.191, 8.846e-6
0.192, 8.785e-6
0.193, 8.919e-6
0.194, 8.976e-6
0.195, 9.051e-6
0.196, 9.153e-6
0.197, 9.156e-6
0.198, 9.238e-6
0.199, 9.347e-6
0.200, 9.394e-6
0.201, 9.483e-6
0.202, 9.515e-6
0.203, 9.614e-6
0.204, 9.723e-6
0.205, 9.554e-6
0.206, 9.833e-6
0.207, 9.941e-6
0.208, 9.981e-6
0.209, 1.014e-5
0.210, 1.017e-5
0.211, 1.024e-5
0.212, 1.037e-5
0.213, 1.037e-5
0.214, 1.051e-5
0.215, 1.065e-5
0.216, 1.073e-5
0.217, 1.079e-5
0.218, 1.082e-5
0.219, 1.099e-5
0.220, 1.119e-5
0.221, 1.116e-5
0.222, 1.129e-5
0.223, 1.142e-5
0.224, 1.152e-5
0.225, 1.164e-5
0.226, 1.171e-5
0.227, 1.189e-5
0.228, 1.199e-5
0.229, 1.201e-5
0.230, 1.224e-5
0.231, 1.242e-5
0.232, 1.247e-5
0.233, 1.257e-5
0.234, 1.267e-5
0.235, 1.286e-5
0.236, 1.298e-5
0.237, 1.302e-5
0.238, 1.331e-5
0.239, 1.341e-5
0.240, 1.348e-5
0.241, 1.378e-5
0.242, 1.381e-5
0.243, 1.387e-5
0.244, 1.411e-5
0.245, 1.421e-5
0.246, 1.441e-5
0.247, 1.465e-5
0.248, 1.472e-5
0.249, 1.496e-5
0.250, 7.229e-6
0.249, -3.220e-6
0.248, -5.172e-6
0.247, -6.337e-6
0.246, -6.996e-6
0.245, -7.440e-6
0.244, -7.874e-6
0.243, -7.998e-6
0.242, -8.310e-6
0.241, -8.566e-6
0.240, -8.692e-6
0.239, -8.787e-6
0.238, -8.899e-6
0.237, -8.993e-6
0.236, -9.079e-6
0.235, -9.084e-6
0.234, -9.158e-6
0.233, -9.218e-6
0.232, -9.187e-6
0.231, -9.256e-6
0.230, -9.251e-6
0.229, -9.260e-6
0.228, -9.227e-6
0.227, -9.177e-6
0.226, -9.226e-6
0.225, -9.241e-6
0.224, -9.161e-6
0.223, -9.209e-6
0.222, -9.230e-6
0.221, -9.130e-6
0.220, -9.151e-6
0.219, -9.116e-6
0.218, -9.034e-6
0.217, -9.084e-6
0.216, -9.067e-6
0.215, -9.041e-6
0.214, -8.997e-6
0.213, -9.008e-6
0.212, -9.011e-6
0.211, -8.975e-6
0.210, -8.940e-6
0.209, -8.971e-6
0.208, -8.903e-6
0.207, -8.930e-6
0.206, -8.919e-6
0.205, -8.669e-6
0.204, -8.821e-6
0.203, -8.801e-6
0.202, -8.808e-6
0.201, -8.831e-6
0.200, -8.720e-6
0.199, -8.800e-6
0.198, -8.776e-6
0.197, -8.734e-6
0.196, -8.731e-6
0.195, -8.734e-6
0.194, -8.714e-6
0.193, -8.734e-6
0.192, -8.626e-6
0.191, -8.687e-6
0.190, -8.683e-6
0.189, -8.672e-6
0.188, -8.705e-6
0.187, -8.668e-6
0.186, -8.652e-6
0.185, -8.680e-6
0.184, -8.685e-6
0.183, -8.663e-6
0.182, -8.661e-6
0.181, -8.701e-6
0.180, -8.707e-6
0.179, -8.748e-6
0.178, -8.705e-6
0.177, -8.728e-6
0.176, -8.680e-6
0.175, -8.739e-6
0.174, -8.744e-6
0.173, -8.766e-6
0.172, -8.767e-6
0.171, -8.770e-6
0.170, -8.787e-6
0.169, -8.820e-6
0.168, -8.787e-6
0.167, -8.804e-6
0.166, -8.759e-6
0.165, -8.844e-6
0.164, -8.887e-6
0.163, -8.905e-6
0.162, -8.917e-6
0.161, -8.930e-6
0.160, -8.954e-6
0.159, -8.990e-6
0.158, -9.018e-6
0.157, -8.994e-6
0.156, -9.065e-6
0.155, -9.034e-6
0.154, -9.122e-6
0.153, -9.156e-6
0.152, -9.171e-6
0.151, -9.182e-6
0.150, -4.108e-6
0.151, 2.080e-6
0.152, 3.136e-6
0.153, 3.840e-6
0.154, 4.291e-6
0.155, 4.621e-6
0.156, 4.984e-6
0.157, 5.240e-6
0.158, 5.460e-6
0.159, 5.708e-6
0.160, 5.870e-6
0.161, 6.081e-6
0.162, 6.227e-6
0.163, 6.399e-6
0.164, 6.558e-6
0.165, 6.635e-6
0.166, 6.717e-6
0.167, 6.860e-6
0.168, 6.967e-6
0.169, 7.121e-6
0.170, 7.192e-6
0.171, 7.282e-6
0.172, 7.446e-6
0.173, 7.470e-6
0.174, 7.547e-6
0.175, 7.691e-6
0.176, 7.684e-6
0.177, 7.782e-6
0.178, 7.843e-6
0.179, 7.962e-6
0.180, 8.043e-6
0.181, 8.066e-6
0.182, 8.143e-6
0.183, 8.228e-6
0.184, 8.315e-6
0.185, 8.424e-6
0.186, 8.451e-6
0.187, 8.523e-6
0.188, 8.612e-6
0.189, 8.645e-6
0.190, 8.729e-6
0.191, 8.820e-6
0.192, 8.792e-6
0.193, 8.956e-6
0.194, 8.973e-6
0.195, 9.046e-6
0.196, 9.134e-6
0.197, 9.178e-6
0.198, 9.227e-6
0.199, 9.337e-6
0.200, 9.369e-6
0.201, 9.486e-6
0.202, 9.491e-6
0.203, 9.605e-6
0.204, 9.704e-6
0.205, 9.566e-6
0.206, 9.807e-6
0.207, 9.931e-6
0.208, 9.978e-6
0.209, 1.014e-5
0.210, 1.014e-5
0.211, 1.022e-5
0.212, 1.036e-5
0.213, 1.044e-5
0.214, 1.047e-5
0.215, 1.062e-5
0.216, 1.067e-5
0.217, 1.077e-5
0.218, 1.084e-5
0.219, 1.097e-5
0.220, 1.112e-5
0.221, 1.120e-5
0.222, 1.127e-5
0.223, 1.139e-5
0.224, 1.154e-5
0.225, 1.163e-5
0.226, 1.169e-5
0.227, 1.183e-5
0.228, 1.194e-5
0.229, 1.206e-5
0.230, 1.224e-5
0.231, 1.243e-5
0.232, 1.244e-5
0.233, 1.257e-5
0.234, 1.266e-5
0.235, 1.278e-5
0.236, 1.293e-5
0.237, 1.303e-5
0.238, 1.322e-5
0.239, 1.338e-5
0.240, 1.347e-5
0.241, 1.375e-5
0.242, 1.384e-5
0.243, 1.388e-5
0.244, 1.411e-5
0.245, 1.421e-5
0.246, 1.437e-5
0.247, 1.460e-5
0.248, 1.469e-5
0.249, 1.493e-5
0.250, 7.219e-6
0.249, -3.276e-6
0.248, -5.147e-6
0.247, -6.373e-6
0.246, -6.973e-6
0.245, -7.424e-6
0.244, -7.870e-6
0.243, -8.041e-6
0.242, -8.337e-6
0.241, -8.588e-6
0.240, -8.680e-6
0.239, -8.792e-6
0.238, -8.871e-6
0.237, -8.986e-6
0.236, -9.083e-6
0.235, -9.121e-6
0.234, -9.180e-6
0.233, -9.183e-6
0.232, -9.165e-6
0.231, -9.233e-6
0.230, -9.280e-6
0.229, -9.243e-6
0.228, -9.237e-6
0.227, -9.208e-6
0.226, -9.234e-6
0.225, -9.226e-6
0.224, -9.207e-6
0.223, -9.233e-6
0.222, -9.147e-6
0.221, -9.154e-6
0.220, -9.151e-6
0.219, -9.130e-6
0.218, -9.020e-6
0.217, -9.071e-6
0.216, -9.059e-6
0.215, -9.063e-6
0.214, -9.023e-6
0.213, -8.998e-6
0.212, -8.999e-6
0.211, -8.992e-6
0.210, -8.951e-6
0.209, -8.983e-6
0.208, -8.879e-6
0.207, -8.936e-6
0.206, -8.889e-6
0.205, -8.664e-6
0.204, -8.838e-6
0.203, -8.805e-6
0.202, -8.788e-6
0.201, -8.844e-6
0.200, -8.765e-6
0.199, -8.770e-6
0.198, -8.784e-6
0.197, -8.694e-6
0.196, -8.729e-6
0.195, -8.725e-6
0.194, -8.694e-6
0.193, -8.741e-6
0.192, -8.595e-6
0.191, -8.721e-6
0.190, -8.672e-6
0.189, -8.684e-6
0.188, -8.718e-6
0.187, -8.646e-6
0.186, -8.673e-6
0.185, -8.693e-6
0.184, -8.655e-6
0.183, -8.687e-6
0.182, -8.675e-6
0.181, -8.712e-6
0.180, -8.709e-6
0.179, -8.744e-6
0.178, -8.687e-6
0.177, -8.716e-6
0.176, -8.686e-6
0.175, -8.712e-6
0.174, -8.720e-6
0.173, -8.769e-6
0.172, -8.755e-6
0.171, -8.789e-6
0.170, -8.778e-6
0.169, -8.808e-6
0.168, -8.814e-6
0.167, -8.817e-6
0.166, -8.843e-6
0.165, -8.855e-6
0.164, -8.904e-6
0.163, -8.858e-6
0.162, -8.908e-6
0.161, -8.949e-6
0.160, -8.919e-6
0.159, -9.008e-6
0.158, -9.017e-6
0.157, -9.055e-6
0.156, -9.065e-6
0.155, -9.083e-6
0.154, -9.122e-6
0.153, -9.149e-6
0.152, -9.126e-6
0.151, -9.199e-6
0.150, -4.095e-6
0.151, 2.077e-6
0.152, 3.153e-6
0.153, 3.783e-6
0.154, 4.277e-6
0.155, 4.666e-6
0.156, 4.979e-6
0.157, 5.205e-6
0.158, 5.446e-6
0.159, 5.740e-6
0.160, 5.908e-6
0.161, 6.089e-6
0.162, 6.231e-6
0.163, 6.407e-6
0.164, 6.518e-6
0.165, 6.614e-6
0.166, 6.757e-6
0.167, 6.873e-6
0.168, 6.930e-6
0.169, 7.086e-6
0.170, 7.192e-6
0.171, 7.305e-6
0.172, 7.399e-6
0.173, 7.471e-6
0.174, 7.569e-6
0.175, 7.673e-6
0.176, 7.663e-6
0.177, 7.754e-6
0.178, 7.843e-6
0.179, 7.975e-6
0.180, 8.038e-6
0.181, 8.055e-6
0.182, 8.145e-6
0.183, 8.216e-6
0.184, 8.263e-6
0.185, 8.373e-6
0.186, 8.404e-6
0.187, 8.544e-6
0.188, 8.624e-6
0.189, 8.618e-6
0.190, 8.693e-6
0.191, 8.800e-6
0.192, 8.785e-6
0.193, 8.951e-6
0.194, 8.965e-6
0.195, 8.985e-6
0.196, 9.138e-6
0.197, 9.161e-6
0.198, 9.233e-6
0.199, 9.328e-6
0.200, 9.370e-6
0.201, 9.464e-6
0.202, 9.494e-6
0.203, 9.608e-6
0.204, 9.701e-6
0.205, 9.530e-6
0.206, 9.798e-6
0.207, 9.936e-6
0.208, 9.954e-6
0.209, 1.010e-5
0.210, 1.012e-5
0.211, 1.025e-5
0.212, 1.035e-5
0.213, 1.040e-5
0.214, 1.050e-5
0.215, 1.058e-5
0.216, 1.064e-5
0.217, 1.080e-5
0.218, 1.080e-5
0.219, 1.099e-5
0.220, 1.111e-5
0.221, 1.115e-5
0.222, 1.129e-5
0.223, 1.144e-5
0.224, 1.147e-5
0.225, 1.160e-5
0.226, 1.168e-5
0.227, 1.183e-5
0.228, 1.195e-5
0.229, 1.205e-5
0.230, 1.220e-5
0.231, 1.240e-5
0.232, 1.243e-5
0.233, 1.259e-5
0.234, 1.266e-5
0.235, 1.273e-5
0.236, 1.296e-5
0.237, 1.299e-5
0.238, 1.323e-5
0.239, 1.339e-5
0.240, 1.345e-5
0.241, 1.370e-5
0.242, 1.380e-5
0.243, 1.387e-5
0.244, 1.409e-5
0.245, 1.421e-5
0.246, 1.435e-5
0.247, 1.454e-5
0.248, 1.477e-5
0.249, 1.489e-5
0.250, 7.142e-6
0.249, -3.215e-6
0.248, -5.197e-6
0.247, -6.308e-6
0.246, -6.998e-6
0.245, -7.431e-6
0.244, -7.874e-6
0.243, -8.073e-6
0.242, -8.291e-6
0.241, -8.566e-6
0.240, -8.653e-6
0.239, -8.838e-6
0.238, -8.923e-6
0.237, -9.018e-6
0.236, -9.058e-6
0.235, -9.105e-6
0.234, -9.105e-6
0.233, -9.185e-6
0.232, -9.144e-6
0.231, -9.291e-6
0.230, -9.286e-6
0.229, -9.236e-6
0.228, -9.230e-6
0.227, -9.183e-6
0.226, -9.220e-6
0.225, -9.209e-6
0.224, -9.205e-6
0.223, -9.218e-6
0.222, -9.183e-6
0.221, -9.130e-6
0.220, -9.152e-6
0.219, -9.119e-6
0.218, -9.028e-6
0.217, -9.049e-6
0.216, -9.057e-6
0.215, -9.105e-6
0.214, -9.041e-6
0.213, -9.005e-6
0.212, -9.030e-6
0.211, -8.998e-6
0.210, -8.958e-6
0.209, -8.975e-6
0.208, -8.884e-6
0.207, -8.876e-6
0.206, -8.909e-6
0.205, -8.668e-6
0.204, -8.772e-6
0.203, -8.836e-6
0.202, -8.806e-6
0.201, -8.785e-6
0.200, -8.726e-6
0.199, -8.771e-6
0.198, -8.765e-6
0.197, -8.728e-6
0.196, -8.726e-6
0.195, -8.705e-6
0.194, -8.729e-6
0.193, -8.722e-6
0.192, -8.612e-6
0.191, -8.717e-6
0.190, -8.691e-6
0.189, -8.677e-6
0.188, -8.698e-6
0.187, -8.706e-6
0.186, -8.671e-6
0.185, -8.699e-6
0.184, -8.653e-6
0.183, -8.683e-6
0.182, -8.680e-6
0.181, -8.639e-6
0.180, -8.737e-6
0.179, -8.724e-6
0.178, -8.708e-6
0.177, -8.743e-6
0.176, -8.672e-6
0.175, -8.725e-6
0.174, -8.771e-6
0.173, -8.719e-6
0.172, -8.769e-6
0.171, -8.749e-6
0.170, -8.776e-6
0.169, -8.812e-6
0.168, -8.792e-6
0.167, -8.822e-6
0.166, -8.823e-6
0.165, -8.841e-6
0.164, -8.894e-6
0.163, -8.926e-6
0.162, -8.908e-6
0.161, -8.988e-6
0.160, -8.961e-6
0.159, -8.965e-6
0.158, -9.026e-6
0.157, -9.007e-6
0.156, -9.078e-6
0.155, -9.069e-6
0.154, -9.161e-6
0.153, -9.174e-6
0.152, -9.153e-6
0.151, -9.161e-6
0.150, -4.144e-6
0.151, 2.100e-6
0.152, 3.135e-6
0.153, 3.808e-6
0.154, 4.266e-6
0.155, 4.645e-6
0.156, 4.993e-6
0.157, 5.228e-6
0.158, 5.476e-6
0.159, 5.693e-6
0.160, 5.954e-6
0.161, 6.093e-6
0.162, 6.236e-6
0.163, 6.355e-6
0.164, 6.554e-6
0.165, 6.634e-6
0.166, 6.726e-6
0.167, 6.815e-6
0.168, 6.957e-6
0.169, 7.086e-6
0.170, 7.182e-6
0.171, 7.276e-6
0.172, 7.420e-6
0.173, 7.445e-6
0.174, 7.546e-6
0.175, 7.657e-6
0.176, 7.684e-6
0.177, 7.784e-6
0.178, 7.855e-6
0.179, 7.942e-6
0.180, 8.037e-6
0.181, 8.081e-6
0.182, 8.095e-6
0.183, 8.233e-6
0.184, 8.263e-6
0.185, 8.373e-6
0.186, 8.407e-6
0.187, 8.516e-6
0.188, 8.618e-6
0.189, 8.605e-6
0.190, 8.726e-6
0.191, 8.775e-6
0.192, 8.750e-6
0.193, 8.904e-6
0.194, 8.947e-6
0.195, 9.015e-6
0.196, 9.101e-6
0.197, 9.182e-6
0.198, 9.225e-6
0.199, 9.312e-6
0.200, 9.338e-6
0.201, 9.470e-6
0.202, 9.522e-6
0.203, 9.579e-6
0.204, 9.681e-6
0.205, 9.508e-6
0.206, 9.784e-6
0.207, 9.907e-6
0.208, 9.931e-6
0.209, 1.008e-5
0.210, 1.015e-5
0.211, 1.020e-5
0.212, 1.033e-5
0.213, 1.038e-5
0.214, 1.045e-5
0.215, 1.057e-5
0.216, 1.068e-5
0.217, 1.080e-5
0.218, 1.077e-5
0.219, 1.096e-5
0.220, 1.111e-5
0.221, 1.118e-5
0.222, 1.128e-5
0.223, 1.140e-5
0.224, 1.145e-5
0.225, 1.164e-5
0.226, 1.170e-5
0.227, 1.178e-5
0.228, 1.198e-5
0.229, 1.205e-5
0.230, 1.217e-5
0.231, 1.238e-5
0.232, 1.238e-5
0.233, 1.254e-5
0.234, 1.263e-5
0.235, 1.276e-5
0.236, 1.294e-5
0.237, 1.301e-5
0.238, 1.317e-5
0.239, 1.336e-5
0.240, 1.349e-5
0.241, 1.368e-5
0.242, 1.375e-5
0.243, 1.387e-5
0.244, 1.405e-5
0.245, 1.422e-5
0.246, 1.434e-5
0.247, 1.457e-5
0.248, 1.467e-5
0.249, 1.491e-5
0.250, 7.142e-6
0.249, -3.242e-6
0.248, -5.175e-6
0.247, -6.326e-6
0.246, -6.960e-6
0.245, -7.418e-6
0.244, -7.817e-6
0.243, -8.054e-6
0.242, -8.353e-6
0.241, -8.532e-6
0.240, -8.629e-6
0.239, -8.832e-6
0.238, -8.945e-6
0.237, -9.001e-6
0.236, -9.126e-6
0.235, -9.117e-6
0.234, -9.101e-6
0.233, -9.165e-6
0.232, -9.182e-6
0.231, -9.260e-6
0.230, -9.263e-6
0.229, -9.234e-6
0.228, -9.245e-6
0.227, -9.225e-6
0.226, -9.187e-6
0.225, -9.216e-6
0.224, -9.170e-6
0.223, -9.199e-6
0.222, -9.179e-6
0.221, -9.140e-6
0.220, -9.144e-6
0.219, -9.117e-6
0.218, -9.030e-6
0.217, -9.058e-6
0.216, -9.034e-6
0.215, -9.055e-6
0.214, -9.030e-6
0.213, -9.037e-6
0.212, -9.022e-6
0.211, -8.935e-6
0.210, -8.951e-6
0.209, -8.958e-6
0.208, -8.890e-6
0.207, -8.936e-6
0.206, -8.872e-6
0.205, -8.622e-6
0.204, -8.807e-6
0.203, -8.813e-6
0.202, -8.763e-6
0.201, -8.834e-6
0.200, -8.748e-6
0.199, -8.793e-6
0.198, -8.769e-6
0.197, -8.743e-6
0.196, -8.744e-6
0.195, -8.690e-6
0.194, -8.714e-6
0.193, -8.717e-6
0.192, -8.599e-6
0.191, -8.686e-6
0.190, -8.673e-6
0.189, -8.680e-6
0.188, -8.700e-6
0.187, -8.655e-6
0.186, -8.681e-6
0.185, -8.703e-6
0.184, -8.634e-6
0.183, -8.685e-6
0.182, -8.705e-6
0.181, -8.684e-6
0.180, -8.709e-6
0.179, -8.761e-6
0.178, -8.670e-6
0.177, -8.732e-6
0.176, -8.676e-6
0.175, -8.761e-6
0.174, -8.740e-6
0.173, -8.758e-6
0.172, -8.787e-6
0.171, -8.748e-6
0.170, -8.760e-6
0.169, -8.837e-6
0.168, -8.796e-6
0.167, -8.844e-6
0.166, -8.799e-6
0.165, -8.862e-6
0.164, -8.906e-6
0.163, -8.846e-6
0.162, -8.937e-6
0.161, -8.973e-6
0.160, -8.986e-6
0.159, -8.994e-6
0.158, -9.015e-6
0.157, -9.024e-6
0.156, -9.044e-6
0.155, -9.054e-6
0.154, -9.166e-6
0.153, -9.148e-6
0.152, -9.130e-6
0.151, -9.180e-6
0.150, -4.088e-6
0.151, 2.111e-6
0.152, 3.122e-6
0.153, 3.803e-6
0.154, 4.261e-6
0.155, 4.627e-6
0.156, 4.998e-6
0.157, 5.200e-6
0.158, 5.468e-6
0.159, 5.699e-6
0.160, 5.872e-6
0.161, 6.093e-6
0.162, 6.236e-6
0.163, 6.394e-6
0.164, 6.550e-6
0.165, 6.613e-6
0.166, 6.697e-6
0.167, 6.859e-6
0.168, 6.949e-6
0.169, 7.096e-6
0.170, 7.183e-6
0.171, 7.314e-6
0.172, 7.387e-6
0.173, 7.453e-6
0.174, 7.575e-6
0.175, 7.648e-6
0.176, 7.685e-6
0.177, 7.775e-6
0.178, 7.819e-6
0.179, 7.945e-6
0.180, 8.040e-6
0.181, 8.013e-6
0.182, 8.127e-6
0.183, 8.207e-6
0.184, 8.268e-6
0.185, 8.381e-6
0.186, 8.410e-6
0.187, 8.484e-6
0.188, 8.586e-6
0.189, 8.585e-6
0.190, 8.721e-6
0.191, 8.812e-6
0.192, 8.744e-6
0.193, 8.894e-6
0.194, 8.944e-6
0.195, 9.043e-6
0.196, 9.139e-6
0.197, 9.125e-6
0.198, 9.199e-6
0.199, 9.340e-6
0.200, 9.345e-6
0.201, 9.449e-6
0.202, 9.529e-6
0.203, 9.577e-6
0.204, 9.675e-6
0.205, 9.508e-6
0.206, 9.794e-6
0.207, 9.894e-6
0.208, 9.934e-6
0.209, 1.006e-5
0.210, 1.016e-5
0.211, 1.018e-5
0.212, 1.035e-5
0.213, 1.034e-5
0.214, 1.046e-5
0.215, 1.056e-5
0.216, 1.066e-5
0.217, 1.076e-5
0.218, 1.081e-5
0.219, 1.091e-5
0.220, 1.109e-5
0.221, 1.114e-5
0.222, 1.124e-5
0.223, 1.139e-5
0.224, 1.145e-5
0.225, 1.160e-5
0.226, 1.170e-5
0.227, 1.176e-5
0.228, 1.191e-5
0.229, 1.199e-5
0.230, 1.223e-5
0.231, 1.238e-5
0.232, 1.240e-5
0.233, 1.251e-5
0.234, 1.262e-5
0.235, 1.280e-5
0.236, 1.289e-5
0.237, 1.302e-5
0.238, 1.316e-5
0.239, 1.335e-5
0.240, 1.342e-5
0.241, 1.361e-5
0.242, 1.377e-5
0.243, 1.387e-5
0.244, 1.408e-5
0.245, 1.419e-5
0.246, 1.434e-5
0.247, 1.456e-5
0.248, 1.467e-5
0.249, 1.489e-5
0.250, 7.163e-6
0.249, -3.290e-6
0.248, -5.154e-6
0.247, -6.316e-6
0.246, -6.935e-6
0.245, -7.453e-6
0.244, -7.882e-6
0.243, -8.016e-6
0.242, -8.313e-6
0.241, -8.562e-6
0.240, -8.645e-6
0.239, -8.858e-6
0.238, -8.911e-6
0.237, -8.953e-6
0.236, -9.054e-6
0.235, -9.083e-6
0.234, -9.139e-6
0.233, -9.245e-6
0.232, -9.153e-6
0.231, -9.226e-6
0.230, -9.285e-6
0.229, -9.204e-6
0.228, -9.276e-6
0.227, -9.215e-6
0.226, -9.248e-6
0.225, -9.233e-6
0.224, -9.194e-6
0.223, -9.180e-6
0.222, -9.190e-6
0.221, -9.115e-6
0.220, -9.187e-6
0.219, -9.084e-6
0.218, -9.026e-6
0.217, -9.060e-6
0.216, -9.069e-6
0.215, -9.035e-6
0.214, -9.010e-6
0.213, -8.983e-6
0.212, -9.014e-6
0.211, -8.981e-6
0.210, -8.921e-6
0.209, -8.950e-6
0.208, -8.852e-6
0.207, -8.882e-6
0.206, -8.863e-6
0.205, -8.637e-6
0.204, -8.808e-6
0.203, -8.809e-6
0.202, -8.791e-6
0.201, -8.800e-6
0.200, -8.780e-6
0.199, -8.789e-6
0.198, -8.718e-6
0.197, -8.735e-6
0.196, -8.744e-6
0.195, -8.688e-6
0.194, -8.722e-6
0.193, -8.732e-6
0.192, -8.577e-6
0.191, -8.666e-6
0.190, -8.641e-6
0.189, -8.698e-6
0.188, -8.680e-6
0.187, -8.681e-6
0.186, -8.648e-6
0.185, -8.676e-6
0.184, -8.652e-6
0.183, -8.687e-6
0.182, -8.674e-6
0.181, -8.677e-6
0.180, -8.721e-6
0.179, -8.709e-6
0.178, -8.694e-6
0.177, -8.726e-6
0.176, -8.657e-6
0.175, -8.745e-6
0.174, -8.773e-6
0.173, -8.755e-6
0.172, -8.750e-6
0.171, -8.768e-6
0.170, -8.747e-6
0.169, -8.844e-6
0.168, -8.788e-6
0.167, -8.799e-6
0.166, -8.797e-6
0.165, -8.837e-6
0.164, -8.896e-6
0.163, -8.904e-6
0.162, -8.941e-6
0.161, -8.943e-6
0.160, -8.945e-6
0.159, -9.012e-6
0.158, -9.022e-6
0.157, -9.012e-6
0.156, -9.078e-6
0.155, -9.092e-6
0.154, -9.123e-6
0.153, -9.137e-6
0.152, -9.166e-6
0.151, -9.192e-6
