Sept. 9, 2026   18:09:35
Cyclic Voltammetry
File: d:\desktop\sample\ni foil\ni_foil_cv 10 mv.bin
Data Source:  Experiment
Instrument Model:  CHI660D
Header: 
Note: 

Init E (V) = 0.15
High E (V) = 0.25
Low E (V) = 0.15
Init P/N = P
Scan Rate (V/s) = 0.01
Segment = 20
Sample Interval (V) = 0.001
Quiet Time (sec) = 10
Sensitivity (A/V) = 0.001

Results:

Channel 1:
Segment 1:

Segment 2:

Segment 3:

Segment 4:

Segment 5:

Segment 6:

Segment 7:

Segment 8:

Segment 9:

Segment 10:

Segment 11:

Segment 12:

Segment 13:

Segment 14:

Segment 15:

Segment 16:

Segment 17:

Segment 18:

Segment 19:

Segment 20:

Potential/V, Current/A

0.150, 1.606e-6
0.151, 2.234e-6
0.152, 2.358e-6
0.153, 2.474e-6
0.154, 2.547e-6
0.155, 2.601e-6
0.156, 2.660e-6
0.157, 2.702e-6
0.158, 2.731e-6
0.159, 2.801e-6
0.160, 2.807e-6
0.161, 2.843e-6
0.162, 2.883e-6
0.163, 2.892e-6
0.164, 2.937e-6
0.165, 2.951e-6
0.166, 2.940e-6
0.167, 3.013e-6
0.168, 3.003e-6
0.169, 3.053e-6
0.170, 3.060e-6
0.171, 3.084e-6
0.172, 3.112e-6
0.173, 3.131e-6
0.174, 3.133e-6
0.175, 3.192e-6
0.176, 3.171e-6
0.177, 3.214e-6
0.178, 3.241e-6
0.179, 3.283e-6
0.180, 3.281e-6
0.181, 3.288e-6
0.182, 3.306e-6
0.183, 3.367e-6
0.184, 3.338e-6
0.185, 3.396e-6
0.186, 3.388e-6
0.187, 3.439e-6
0.188, 3.452e-6
0.189, 3.463e-6
0.190, 3.495e-6
0.191, 3.523e-6
0.192, 3.510e-6
0.193, 3.546e-6
0.194, 3.581e-6
0.195, 3.605e-6
0.196, 3.624e-6
0.197, 3.666e-6
0.198, 3.670e-6
0.199, 3.716e-6
0.200, 3.710e-6
0.201, 3.736e-6
0.202, 3.762e-6
0.203, 3.795e-6
0.204, 3.809e-6
0.205, 3.769e-6
0.206, 3.839e-6
0.207, 3.910e-6
0.208, 3.890e-6
0.209, 3.947e-6
0.210, 3.973e-6
0.211, 4.005e-6
0.212, 4.009e-6
0.213, 4.066e-6
0.214, 4.044e-6
0.215, 4.129e-6
0.216, 4.115e-6
0.217, 4.158e-6
0.218, 4.176e-6
0.219, 4.250e-6
0.220, 4.259e-6
0.221, 4.302e-6
0.222, 4.300e-6
0.223, 4.399e-6
0.224, 4.405e-6
0.225, 4.441e-6
0.226, 4.482e-6
0.227, 4.521e-6
0.228, 4.562e-6
0.229, 4.598e-6
0.230, 4.666e-6
0.231, 4.710e-6
0.232, 4.710e-6
0.233, 4.763e-6
0.234, 4.820e-6
0.235, 4.864e-6
0.236, 4.885e-6
0.237, 4.949e-6
0.238, 4.969e-6
0.239, 5.063e-6
0.240, 5.059e-6
0.241, 5.129e-6
0.242, 5.154e-6
0.243, 5.188e-6
0.244, 5.264e-6
0.245, 5.333e-6
0.246, 5.315e-6
0.247, 5.434e-6
0.248, 5.453e-6
0.249, 5.525e-6
0.250, 1.682e-6
0.249, -5.140e-7
0.248, -9.436e-7
0.247, -1.204e-6
0.246, -1.409e-6
0.245, -1.518e-6
0.244, -1.640e-6
0.243, -1.677e-6
0.242, -1.785e-6
0.241, -1.861e-6
0.240, -1.851e-6
0.239, -1.934e-6
0.238, -1.983e-6
0.237, -1.982e-6
0.236, -2.031e-6
0.235, -2.043e-6
0.234, -2.064e-6
0.233, -2.097e-6
0.232, -2.120e-6
0.231, -2.136e-6
0.230, -2.146e-6
0.229, -2.129e-6
0.228, -2.168e-6
0.227, -2.158e-6
0.226, -2.191e-6
0.225, -2.203e-6
0.224, -2.186e-6
0.223, -2.186e-6
0.222, -2.218e-6
0.221, -2.207e-6
0.220, -2.219e-6
0.219, -2.211e-6
0.218, -2.192e-6
0.217, -2.235e-6
0.216, -2.223e-6
0.215, -2.195e-6
0.214, -2.261e-6
0.213, -2.240e-6
0.212, -2.243e-6
0.211, -2.239e-6
0.210, -2.244e-6
0.209, -2.238e-6
0.208, -2.243e-6
0.207, -2.233e-6
0.206, -2.241e-6
0.205, -2.178e-6
0.204, -2.236e-6
0.203, -2.229e-6
0.202, -2.244e-6
0.201, -2.246e-6
0.200, -2.250e-6
0.199, -2.250e-6
0.198, -2.258e-6
0.197, -2.251e-6
0.196, -2.267e-6
0.195, -2.255e-6
0.194, -2.266e-6
0.193, -2.273e-6
0.192, -2.237e-6
0.191, -2.247e-6
0.190, -2.280e-6
0.189, -2.266e-6
0.188, -2.276e-6
0.187, -2.275e-6
0.186, -2.292e-6
0.185, -2.293e-6
0.184, -2.284e-6
0.183, -2.284e-6
0.182, -2.303e-6
0.181, -2.300e-6
0.180, -2.317e-6
0.179, -2.323e-6
0.178, -2.311e-6
0.177, -2.326e-6
0.176, -2.325e-6
0.175, -2.318e-6
0.174, -2.346e-6
0.173, -2.328e-6
0.172, -2.353e-6
0.171, -2.345e-6
0.170, -2.353e-6
0.169, -2.352e-6
0.168, -2.359e-6
0.167, -2.350e-6
0.166, -2.374e-6
0.165, -2.374e-6
0.164, -2.399e-6
0.163, -2.385e-6
0.162, -2.396e-6
0.161, -2.421e-6
0.160, -2.400e-6
0.159, -2.415e-6
0.158, -2.440e-6
0.157, -2.425e-6
0.156, -2.445e-6
0.155, -2.444e-6
0.154, -2.477e-6
0.153, -2.474e-6
0.152, -2.464e-6
0.151, -2.471e-6
0.150, -2.570e-7
0.151, 1.033e-6
0.152, 1.314e-6
0.153, 1.523e-6
0.154, 1.643e-6
0.155, 1.775e-6
0.156, 1.863e-6
0.157, 1.945e-6
0.158, 2.007e-6
0.159, 2.112e-6
0.160, 2.121e-6
0.161, 2.217e-6
0.162, 2.252e-6
0.163, 2.303e-6
0.164, 2.346e-6
0.165, 2.374e-6
0.166, 2.393e-6
0.167, 2.464e-6
0.168, 2.474e-6
0.169, 2.525e-6
0.170, 2.537e-6
0.171, 2.604e-6
0.172, 2.610e-6
0.173, 2.644e-6
0.174, 2.651e-6
0.175, 2.689e-6
0.176, 2.689e-6
0.177, 2.735e-6
0.178, 2.757e-6
0.179, 2.787e-6
0.180, 2.796e-6
0.181, 2.821e-6
0.182, 2.824e-6
0.183, 2.867e-6
0.184, 2.857e-6
0.185, 2.899e-6
0.186, 2.916e-6
0.187, 2.945e-6
0.188, 2.954e-6
0.189, 2.973e-6
0.190, 2.985e-6
0.191, 3.033e-6
0.192, 3.010e-6
0.193, 3.057e-6
0.194, 3.077e-6
0.195, 3.110e-6
0.196, 3.121e-6
0.197, 3.143e-6
0.198, 3.159e-6
0.199, 3.214e-6
0.200, 3.206e-6
0.201, 3.233e-6
0.202, 3.258e-6
0.203, 3.309e-6
0.204, 3.308e-6
0.205, 3.296e-6
0.206, 3.363e-6
0.207, 3.413e-6
0.208, 3.406e-6
0.209, 3.454e-6
0.210, 3.477e-6
0.211, 3.530e-6
0.212, 3.549e-6
0.213, 3.572e-6
0.214, 3.602e-6
0.215, 3.656e-6
0.216, 3.653e-6
0.217, 3.680e-6
0.218, 3.723e-6
0.219, 3.772e-6
0.220, 3.780e-6
0.221, 3.843e-6
0.222, 3.851e-6
0.223, 3.923e-6
0.224, 3.909e-6
0.225, 3.973e-6
0.226, 3.991e-6
0.227, 4.036e-6
0.228, 4.082e-6
0.229, 4.116e-6
0.230, 4.158e-6
0.231, 4.220e-6
0.232, 4.217e-6
0.233, 4.280e-6
0.234, 4.323e-6
0.235, 4.366e-6
0.236, 4.410e-6
0.237, 4.466e-6
0.238, 4.484e-6
0.239, 4.589e-6
0.240, 4.587e-6
0.241, 4.652e-6
0.242, 4.711e-6
0.243, 4.737e-6
0.244, 4.812e-6
0.245, 4.864e-6
0.246, 4.887e-6
0.247, 4.988e-6
0.248, 5.015e-6
0.249, 5.104e-6
0.250, 1.288e-6
0.249, -8.959e-7
0.248, -1.300e-6
0.247, -1.518e-6
0.246, -1.704e-6
0.245, -1.788e-6
0.244, -1.890e-6
0.243, -1.914e-6
0.242, -2.004e-6
0.241, -2.066e-6
0.240, -2.067e-6
0.239, -2.116e-6
0.238, -2.152e-6
0.237, -2.169e-6
0.236, -2.200e-6
0.235, -2.211e-6
0.234, -2.213e-6
0.233, -2.258e-6
0.232, -2.237e-6
0.231, -2.255e-6
0.230, -2.299e-6
0.229, -2.275e-6
0.228, -2.284e-6
0.227, -2.275e-6
0.226, -2.283e-6
0.225, -2.311e-6
0.224, -2.294e-6
0.223, -2.292e-6
0.222, -2.315e-6
0.221, -2.288e-6
0.220, -2.318e-6
0.219, -2.296e-6
0.218, -2.308e-6
0.217, -2.307e-6
0.216, -2.300e-6
0.215, -2.299e-6
0.214, -2.313e-6
0.213, -2.296e-6
0.212, -2.312e-6
0.211, -2.296e-6
0.210, -2.295e-6
0.209, -2.318e-6
0.208, -2.297e-6
0.207, -2.307e-6
0.206, -2.306e-6
0.205, -2.230e-6
0.204, -2.303e-6
0.203, -2.293e-6
0.202, -2.305e-6
0.201, -2.301e-6
0.200, -2.302e-6
0.199, -2.300e-6
0.198, -2.320e-6
0.197, -2.297e-6
0.196, -2.311e-6
0.195, -2.302e-6
0.194, -2.321e-6
0.193, -2.306e-6
0.192, -2.292e-6
0.191, -2.296e-6
0.190, -2.328e-6
0.189, -2.307e-6
0.188, -2.321e-6
0.187, -2.317e-6
0.186, -2.336e-6
0.185, -2.323e-6
0.184, -2.333e-6
0.183, -2.323e-6
0.182, -2.367e-6
0.181, -2.338e-6
0.180, -2.353e-6
0.179, -2.358e-6
0.178, -2.353e-6
0.177, -2.368e-6
0.176, -2.346e-6
0.175, -2.367e-6
0.174, -2.376e-6
0.173, -2.382e-6
0.172, -2.382e-6
0.171, -2.385e-6
0.170, -2.389e-6
0.169, -2.401e-6
0.168, -2.405e-6
0.167, -2.375e-6
0.166, -2.418e-6
0.165, -2.418e-6
0.164, -2.426e-6
0.163, -2.434e-6
0.162, -2.438e-6
0.161, -2.459e-6
0.160, -2.460e-6
0.159, -2.452e-6
0.158, -2.487e-6
0.157, -2.470e-6
0.156, -2.485e-6
0.155, -2.496e-6
0.154, -2.510e-6
0.153, -2.515e-6
0.152, -2.525e-6
0.151, -2.520e-6
0.150, -3.015e-7
0.151, 9.928e-7
0.152, 1.259e-6
0.153, 1.479e-6
0.154, 1.601e-6
0.155, 1.724e-6
0.156, 1.823e-6
0.157, 1.900e-6
0.158, 1.957e-6
0.159, 2.064e-6
0.160, 2.083e-6
0.161, 2.155e-6
0.162, 2.205e-6
0.163, 2.252e-6
0.164, 2.295e-6
0.165, 2.326e-6
0.166, 2.350e-6
0.167, 2.419e-6
0.168, 2.422e-6
0.169, 2.468e-6
0.170, 2.491e-6
0.171, 2.538e-6
0.172, 2.550e-6
0.173, 2.585e-6
0.174, 2.585e-6
0.175, 2.644e-6
0.176, 2.636e-6
0.177, 2.682e-6
0.178, 2.701e-6
0.179, 2.742e-6
0.180, 2.738e-6
0.181, 2.773e-6
0.182, 2.772e-6
0.183, 2.810e-6
0.184, 2.812e-6
0.185, 2.842e-6
0.186, 2.852e-6
0.187, 2.878e-6
0.188, 2.899e-6
0.189, 2.921e-6
0.190, 2.917e-6
0.191, 2.985e-6
0.192, 2.937e-6
0.193, 3.004e-6
0.194, 2.999e-6
0.195, 3.038e-6
0.196, 3.059e-6
0.197, 3.098e-6
0.198, 3.087e-6
0.199, 3.141e-6
0.200, 3.128e-6
0.201, 3.163e-6
0.202, 3.193e-6
0.203, 3.219e-6
0.204, 3.238e-6
0.205, 3.213e-6
0.206, 3.257e-6
0.207, 3.343e-6
0.208, 3.333e-6
0.209, 3.372e-6
0.210, 3.398e-6
0.211, 3.439e-6
0.212, 3.458e-6
0.213, 3.498e-6
0.214, 3.477e-6
0.215, 3.583e-6
0.216, 3.561e-6
0.217, 3.594e-6
0.218, 3.639e-6
0.219, 3.681e-6
0.220, 3.703e-6
0.221, 3.745e-6
0.222, 3.768e-6
0.223, 3.828e-6
0.224, 3.820e-6
0.225, 3.877e-6
0.226, 3.906e-6
0.227, 3.945e-6
0.228, 3.988e-6
0.229, 4.026e-6
0.230, 4.049e-6
0.231, 4.124e-6
0.232, 4.121e-6
0.233, 4.192e-6
0.234, 4.213e-6
0.235, 4.261e-6
0.236, 4.284e-6
0.237, 4.358e-6
0.238, 4.372e-6
0.239, 4.483e-6
0.240, 4.478e-6
0.241, 4.529e-6
0.242, 4.601e-6
0.243, 4.611e-6
0.244, 4.676e-6
0.245, 4.739e-6
0.246, 4.806e-6
0.247, 4.857e-6
0.248, 4.900e-6
0.249, 4.969e-6
0.250, 1.192e-6
0.249, -9.873e-7
0.248, -1.353e-6
0.247, -1.600e-6
0.246, -1.783e-6
0.245, -1.864e-6
0.244, -1.932e-6
0.243, -1.972e-6
0.242, -2.043e-6
0.241, -2.092e-6
0.240, -2.117e-6
0.239, -2.144e-6
0.238, -2.196e-6
0.237, -2.197e-6
0.236, -2.231e-6
0.235, -2.246e-6
0.234, -2.235e-6
0.233, -2.278e-6
0.232, -2.279e-6
0.231, -2.303e-6
0.230, -2.326e-6
0.229, -2.289e-6
0.228, -2.305e-6
0.227, -2.300e-6
0.226, -2.317e-6
0.225, -2.331e-6
0.224, -2.322e-6
0.223, -2.307e-6
0.222, -2.333e-6
0.221, -2.314e-6
0.220, -2.328e-6
0.219, -2.317e-6
0.218, -2.292e-6
0.217, -2.329e-6
0.216, -2.306e-6
0.215, -2.310e-6
0.214, -2.337e-6
0.213, -2.296e-6
0.212, -2.308e-6
0.211, -2.328e-6
0.210, -2.313e-6
0.209, -2.327e-6
0.208, -2.299e-6
0.207, -2.302e-6
0.206, -2.324e-6
0.205, -2.241e-6
0.204, -2.311e-6
0.203, -2.301e-6
0.202, -2.303e-6
0.201, -2.311e-6
0.200, -2.316e-6
0.199, -2.286e-6
0.198, -2.328e-6
0.197, -2.298e-6
0.196, -2.321e-6
0.195, -2.318e-6
0.194, -2.297e-6
0.193, -2.315e-6
0.192, -2.283e-6
0.191, -2.307e-6
0.190, -2.334e-6
0.189, -2.312e-6
0.188, -2.318e-6
0.187, -2.323e-6
0.186, -2.324e-6
0.185, -2.343e-6
0.184, -2.331e-6
0.183, -2.325e-6
0.182, -2.360e-6
0.181, -2.338e-6
0.180, -2.357e-6
0.179, -2.360e-6
0.178, -2.362e-6
0.177, -2.364e-6
0.176, -2.370e-6
0.175, -2.366e-6
0.174, -2.385e-6
0.173, -2.373e-6
0.172, -2.385e-6
0.171, -2.389e-6
0.170, -2.395e-6
0.169, -2.407e-6
0.168, -2.408e-6
0.167, -2.390e-6
0.166, -2.423e-6
0.165, -2.418e-6
0.164, -2.433e-6
0.163, -2.445e-6
0.162, -2.453e-6
0.161, -2.464e-6
0.160, -2.473e-6
0.159, -2.461e-6
0.158, -2.493e-6
0.157, -2.474e-6
0.156, -2.508e-6
0.155, -2.506e-6
0.154, -2.517e-6
0.153, -2.535e-6
0.152, -2.528e-6
0.151, -2.542e-6
0.150, -3.085e-7
0.151, 9.787e-7
0.152, 1.253e-6
0.153, 1.460e-6
0.154, 1.596e-6
0.155, 1.709e-6
0.156, 1.803e-6
0.157, 1.881e-6
0.158, 1.948e-6
0.159, 2.043e-6
0.160, 2.071e-6
0.161, 2.138e-6
0.162, 2.183e-6
0.163, 2.228e-6
0.164, 2.261e-6
0.165, 2.324e-6
0.166, 2.322e-6
0.167, 2.400e-6
0.168, 2.409e-6
0.169, 2.457e-6
0.170, 2.467e-6
0.171, 2.496e-6
0.172, 2.538e-6
0.173, 2.563e-6
0.174, 2.558e-6
0.175, 2.635e-6
0.176, 2.620e-6
0.177, 2.661e-6
0.178, 2.691e-6
0.179, 2.704e-6
0.180, 2.725e-6
0.181, 2.738e-6
0.182, 2.751e-6
0.183, 2.784e-6
0.184, 2.792e-6
0.185, 2.820e-6
0.186, 2.839e-6
0.187, 2.860e-6
0.188, 2.879e-6
0.189, 2.885e-6
0.190, 2.906e-6
0.191, 2.940e-6
0.192, 2.912e-6
0.193, 2.977e-6
0.194, 2.988e-6
0.195, 3.004e-6
0.196, 3.023e-6
0.197, 3.049e-6
0.198, 3.049e-6
0.199, 3.110e-6
0.200, 3.099e-6
0.201, 3.138e-6
0.202, 3.161e-6
0.203, 3.171e-6
0.204, 3.199e-6
0.205, 3.166e-6
0.206, 3.238e-6
0.207, 3.295e-6
0.208, 3.285e-6
0.209, 3.329e-6
0.210, 3.362e-6
0.211, 3.401e-6
0.212, 3.420e-6
0.213, 3.453e-6
0.214, 3.460e-6
0.215, 3.518e-6
0.216, 3.517e-6
0.217, 3.551e-6
0.218, 3.589e-6
0.219, 3.639e-6
0.220, 3.656e-6
0.221, 3.677e-6
0.222, 3.724e-6
0.223, 3.777e-6
0.224, 3.788e-6
0.225, 3.824e-6
0.226, 3.862e-6
0.227, 3.891e-6
0.228, 3.945e-6
0.229, 3.959e-6
0.230, 4.017e-6
0.231, 4.060e-6
0.232, 4.053e-6
0.233, 4.121e-6
0.234, 4.170e-6
0.235, 4.193e-6
0.236, 4.255e-6
0.237, 4.283e-6
0.238, 4.300e-6
0.239, 4.422e-6
0.240, 4.413e-6
0.241, 4.471e-6
0.242, 4.520e-6
0.243, 4.544e-6
0.244, 4.605e-6
0.245, 4.684e-6
0.246, 4.721e-6
0.247, 4.798e-6
0.248, 4.812e-6
0.249, 4.888e-6
0.250, 1.169e-6
0.249, -1.010e-6
0.248, -1.385e-6
0.247, -1.614e-6
0.246, -1.790e-6
0.245, -1.871e-6
0.244, -1.961e-6
0.243, -1.986e-6
0.242, -2.068e-6
0.241, -2.110e-6
0.240, -2.146e-6
0.239, -2.157e-6
0.238, -2.215e-6
0.237, -2.231e-6
0.236, -2.236e-6
0.235, -2.250e-6
0.234, -2.251e-6
0.233, -2.277e-6
0.232, -2.286e-6
0.231, -2.321e-6
0.230, -2.321e-6
0.229, -2.289e-6
0.228, -2.333e-6
0.227, -2.301e-6
0.226, -2.314e-6
0.225, -2.330e-6
0.224, -2.314e-6
0.223, -2.330e-6
0.222, -2.325e-6
0.221, -2.311e-6
0.220, -2.332e-6
0.219, -2.312e-6
0.218, -2.300e-6
0.217, -2.332e-6
0.216, -2.306e-6
0.215, -2.300e-6
0.214, -2.326e-6
0.213, -2.307e-6
0.212, -2.311e-6
0.211, -2.313e-6
0.210, -2.321e-6
0.209, -2.318e-6
0.208, -2.307e-6
0.207, -2.307e-6
0.206, -2.321e-6
0.205, -2.233e-6
0.204, -2.296e-6
0.203, -2.300e-6
0.202, -2.288e-6
0.201, -2.305e-6
0.200, -2.307e-6
0.199, -2.298e-6
0.198, -2.309e-6
0.197, -2.307e-6
0.196, -2.307e-6
0.195, -2.300e-6
0.194, -2.305e-6
0.193, -2.316e-6
0.192, -2.275e-6
0.191, -2.300e-6
0.190, -2.321e-6
0.189, -2.311e-6
0.188, -2.322e-6
0.187, -2.322e-6
0.186, -2.321e-6
0.185, -2.325e-6
0.184, -2.315e-6
0.183, -2.330e-6
0.182, -2.350e-6
0.181, -2.336e-6
0.180, -2.357e-6
0.179, -2.348e-6
0.178, -2.364e-6
0.177, -2.352e-6
0.176, -2.361e-6
0.175, -2.357e-6
0.174, -2.374e-6
0.173, -2.371e-6
0.172, -2.400e-6
0.171, -2.391e-6
0.170, -2.381e-6
0.169, -2.396e-6
0.168, -2.415e-6
0.167, -2.393e-6
0.166, -2.428e-6
0.165, -2.433e-6
0.164, -2.439e-6
0.163, -2.433e-6
0.162, -2.457e-6
0.161, -2.471e-6
0.160, -2.475e-6
0.159, -2.459e-6
0.158, -2.500e-6
0.157, -2.490e-6
0.156, -2.504e-6
0.155, -2.514e-6
0.154, -2.530e-6
0.153, -2.533e-6
0.152, -2.537e-6
0.151, -2.532e-6
0.150, -3.117e-7
0.151, 9.654e-7
0.152, 1.247e-6
0.153, 1.459e-6
0.154, 1.580e-6
0.155, 1.699e-6
0.156, 1.779e-6
0.157, 1.880e-6
0.158, 1.935e-6
0.159, 2.041e-6
0.160, 2.061e-6
0.161, 2.129e-6
0.162, 2.167e-6
0.163, 2.224e-6
0.164, 2.267e-6
0.165, 2.311e-6
0.166, 2.310e-6
0.167, 2.384e-6
0.168, 2.382e-6
0.169, 2.431e-6
0.170, 2.466e-6
0.171, 2.493e-6
0.172, 2.523e-6
0.173, 2.548e-6
0.174, 2.567e-6
0.175, 2.618e-6
0.176, 2.599e-6
0.177, 2.638e-6
0.178, 2.661e-6
0.179, 2.704e-6
0.180, 2.706e-6
0.181, 2.719e-6
0.182, 2.728e-6
0.183, 2.770e-6
0.184, 2.764e-6
0.185, 2.798e-6
0.186, 2.811e-6
0.187, 2.836e-6
0.188, 2.850e-6
0.189, 2.877e-6
0.190, 2.874e-6
0.191, 2.931e-6
0.192, 2.885e-6
0.193, 2.950e-6
0.194, 2.962e-6
0.195, 2.984e-6
0.196, 2.999e-6
0.197, 3.028e-6
0.198, 3.028e-6
0.199, 3.088e-6
0.200, 3.082e-6
0.201, 3.096e-6
0.202, 3.132e-6
0.203, 3.157e-6
0.204, 3.181e-6
0.205, 3.150e-6
0.206, 3.195e-6
0.207, 3.252e-6
0.208, 3.259e-6
0.209, 3.310e-6
0.210, 3.326e-6
0.211, 3.367e-6
0.212, 3.372e-6
0.213, 3.410e-6
0.214, 3.424e-6
0.215, 3.509e-6
0.216, 3.502e-6
0.217, 3.519e-6
0.218, 3.552e-6
0.219, 3.602e-6
0.220, 3.626e-6
0.221, 3.672e-6
0.222, 3.675e-6
0.223, 3.745e-6
0.224, 3.750e-6
0.225, 3.791e-6
0.226, 3.834e-6
0.227, 3.850e-6
0.228, 3.893e-6
0.229, 3.927e-6
0.230, 3.988e-6
0.231, 4.023e-6
0.232, 4.032e-6
0.233, 4.088e-6
0.234, 4.121e-6
0.235, 4.177e-6
0.236, 4.192e-6
0.237, 4.258e-6
0.238, 4.284e-6
0.239, 4.366e-6
0.240, 4.357e-6
0.241, 4.424e-6
0.242, 4.488e-6
0.243, 4.505e-6
0.244, 4.586e-6
0.245, 4.630e-6
0.246, 4.663e-6
0.247, 4.776e-6
0.248, 4.772e-6
0.249, 4.833e-6
0.250, 1.139e-6
0.249, -1.033e-6
0.248, -1.420e-6
0.247, -1.625e-6
0.246, -1.827e-6
0.245, -1.880e-6
0.244, -1.963e-6
0.243, -2.004e-6
0.242, -2.068e-6
0.241, -2.132e-6
0.240, -2.126e-6
0.239, -2.187e-6
0.238, -2.207e-6
0.237, -2.212e-6
0.236, -2.250e-6
0.235, -2.239e-6
0.234, -2.259e-6
0.233, -2.289e-6
0.232, -2.283e-6
0.231, -2.314e-6
0.230, -2.317e-6
0.229, -2.300e-6
0.228, -2.318e-6
0.227, -2.317e-6
0.226, -2.314e-6
0.225, -2.307e-6
0.224, -2.321e-6
0.223, -2.305e-6
0.222, -2.348e-6
0.221, -2.307e-6
0.220, -2.318e-6
0.219, -2.315e-6
0.218, -2.304e-6
0.217, -2.318e-6
0.216, -2.301e-6
0.215, -2.314e-6
0.214, -2.306e-6
0.213, -2.312e-6
0.212, -2.311e-6
0.211, -2.312e-6
0.210, -2.305e-6
0.209, -2.319e-6
0.208, -2.301e-6
0.207, -2.298e-6
0.206, -2.324e-6
0.205, -2.228e-6
0.204, -2.299e-6
0.203, -2.286e-6
0.202, -2.296e-6
0.201, -2.290e-6
0.200, -2.303e-6
0.199, -2.291e-6
0.198, -2.323e-6
0.197, -2.291e-6
0.196, -2.300e-6
0.195, -2.289e-6
0.194, -2.311e-6
0.193, -2.311e-6
0.192, -2.285e-6
0.191, -2.296e-6
0.190, -2.318e-6
0.189, -2.306e-6
0.188, -2.317e-6
0.187, -2.318e-6
0.186, -2.316e-6
0.185, -2.332e-6
0.184, -2.329e-6
0.183, -2.321e-6
0.182, -2.352e-6
0.181, -2.323e-6
0.180, -2.361e-6
0.179, -2.347e-6
0.178, -2.355e-6
0.177, -2.363e-6
0.176, -2.357e-6
0.175, -2.358e-6
0.174, -2.386e-6
0.173, -2.365e-6
0.172, -2.393e-6
0.171, -2.386e-6
0.170, -2.396e-6
0.169, -2.396e-6
0.168, -2.417e-6
0.167, -2.390e-6
0.166, -2.428e-6
0.165, -2.414e-6
0.164, -2.433e-6
0.163, -2.446e-6
0.162, -2.455e-6
0.161, -2.459e-6
0.160, -2.470e-6
0.159, -2.458e-6
0.158, -2.509e-6
0.157, -2.477e-6
0.156, -2.510e-6
0.155, -2.514e-6
0.154, -2.525e-6
0.153, -2.539e-6
0.152, -2.533e-6
0.151, -2.535e-6
0.150, -3.195e-7
0.151, 9.631e-7
0.152, 1.235e-6
0.153, 1.443e-6
0.154, 1.579e-6
0.155, 1.705e-6
0.156, 1.765e-6
0.157, 1.876e-6
0.158, 1.927e-6
0.159, 2.014e-6
0.160, 2.056e-6
0.161, 2.119e-6
0.162, 2.155e-6
0.163, 2.207e-6
0.164, 2.245e-6
0.165, 2.297e-6
0.166, 2.304e-6
0.167, 2.373e-6
0.168, 2.379e-6
0.169, 2.425e-6
0.170, 2.443e-6
0.171, 2.485e-6
0.172, 2.516e-6
0.173, 2.530e-6
0.174, 2.540e-6
0.175, 2.599e-6
0.176, 2.578e-6
0.177, 2.629e-6
0.178, 2.638e-6
0.179, 2.685e-6
0.180, 2.675e-6
0.181, 2.716e-6
0.182, 2.708e-6
0.183, 2.759e-6
0.184, 2.750e-6
0.185, 2.792e-6
0.186, 2.797e-6
0.187, 2.810e-6
0.188, 2.846e-6
0.189, 2.849e-6
0.190, 2.877e-6
0.191, 2.905e-6
0.192, 2.885e-6
0.193, 2.906e-6
0.194, 2.953e-6
0.195, 2.971e-6
0.196, 2.971e-6
0.197, 3.015e-6
0.198, 3.017e-6
0.199, 3.057e-6
0.200, 3.063e-6
0.201, 3.078e-6
0.202, 3.115e-6
0.203, 3.134e-6
0.204, 3.145e-6
0.205, 3.124e-6
0.206, 3.194e-6
0.207, 3.238e-6
0.208, 3.235e-6
0.209, 3.291e-6
0.210, 3.308e-6
0.211, 3.346e-6
0.212, 3.353e-6
0.213, 3.384e-6
0.214, 3.405e-6
0.215, 3.464e-6
0.216, 3.469e-6
0.217, 3.503e-6
0.218, 3.538e-6
0.219, 3.576e-6
0.220, 3.599e-6
0.221, 3.627e-6
0.222, 3.648e-6
0.223, 3.725e-6
0.224, 3.715e-6
0.225, 3.781e-6
0.226, 3.793e-6
0.227, 3.841e-6
0.228, 3.877e-6
0.229, 3.902e-6
0.230, 3.954e-6
0.231, 4.006e-6
0.232, 4.007e-6
0.233, 4.059e-6
0.234, 4.096e-6
0.235, 4.140e-6
0.236, 4.176e-6
0.237, 4.220e-6
0.238, 4.248e-6
0.239, 4.342e-6
0.240, 4.333e-6
0.241, 4.384e-6
0.242, 4.440e-6
0.243, 4.453e-6
0.244, 4.559e-6
0.245, 4.598e-6
0.246, 4.637e-6
0.247, 4.718e-6
0.248, 4.731e-6
0.249, 4.818e-6
0.250, 1.065e-6
0.249, -1.028e-6
0.248, -1.440e-6
0.247, -1.628e-6
0.246, -1.826e-6
0.245, -1.882e-6
0.244, -1.973e-6
0.243, -2.002e-6
0.242, -2.070e-6
0.241, -2.125e-6
0.240, -2.154e-6
0.239, -2.164e-6
0.238, -2.236e-6
0.237, -2.206e-6
0.236, -2.243e-6
0.235, -2.273e-6
0.234, -2.247e-6
0.233, -2.283e-6
0.232, -2.285e-6
0.231, -2.322e-6
0.230, -2.318e-6
0.229, -2.297e-6
0.228, -2.314e-6
0.227, -2.314e-6
0.226, -2.300e-6
0.225, -2.330e-6
0.224, -2.309e-6
0.223, -2.322e-6
0.222, -2.337e-6
0.221, -2.298e-6
0.220, -2.318e-6
0.219, -2.314e-6
0.218, -2.292e-6
0.217, -2.310e-6
0.216, -2.311e-6
0.215, -2.304e-6
0.214, -2.330e-6
0.213, -2.299e-6
0.212, -2.311e-6
0.211, -2.299e-6
0.210, -2.300e-6
0.209, -2.316e-6
0.208, -2.281e-6
0.207, -2.289e-6
0.206, -2.312e-6
0.205, -2.227e-6
0.204, -2.289e-6
0.203, -2.291e-6
0.202, -2.300e-6
0.201, -2.297e-6
0.200, -2.300e-6
0.199, -2.293e-6
0.198, -2.313e-6
0.197, -2.286e-6
0.196, -2.300e-6
0.195, -2.293e-6
0.194, -2.296e-6
0.193, -2.318e-6
0.192, -2.268e-6
0.191, -2.294e-6
0.190, -2.314e-6
0.189, -2.286e-6
0.188, -2.328e-6
0.187, -2.313e-6
0.186, -2.313e-6
0.185, -2.339e-6
0.184, -2.313e-6
0.183, -2.312e-6
0.182, -2.348e-6
0.181, -2.322e-6
0.180, -2.355e-6
0.179, -2.337e-6
0.178, -2.350e-6
0.177, -2.350e-6
0.176, -2.359e-6
0.175, -2.350e-6
0.174, -2.389e-6
0.173, -2.372e-6
0.172, -2.382e-6
0.171, -2.385e-6
0.170, -2.385e-6
0.169, -2.407e-6
0.168, -2.389e-6
0.167, -2.382e-6
0.166, -2.428e-6
0.165, -2.420e-6
0.164, -2.440e-6
0.163, -2.438e-6
0.162, -2.452e-6
0.161, -2.460e-6
0.160, -2.466e-6
0.159, -2.462e-6
0.158, -2.507e-6
0.157, -2.485e-6
0.156, -2.500e-6
0.155, -2.509e-6
0.154, -2.535e-6
0.153, -2.531e-6
0.152, -2.546e-6
0.151, -2.532e-6
0.150, -3.101e-7
0.151, 9.608e-7
0.152, 1.235e-6
0.153, 1.444e-6
0.154, 1.570e-6
0.155, 1.707e-6
0.156, 1.774e-6
0.157, 1.873e-6
0.158, 1.917e-6
0.159, 2.002e-6
0.160, 2.048e-6
0.161, 2.123e-6
0.162, 2.164e-6
0.163, 2.207e-6
0.164, 2.248e-6
0.165, 2.290e-6
0.166, 2.288e-6
0.167, 2.362e-6
0.168, 2.374e-6
0.169, 2.416e-6
0.170, 2.452e-6
0.171, 2.480e-6
0.172, 2.495e-6
0.173, 2.535e-6
0.174, 2.534e-6
0.175, 2.589e-6
0.176, 2.567e-6
0.177, 2.617e-6
0.178, 2.640e-6
0.179, 2.674e-6
0.180, 2.674e-6
0.181, 2.695e-6
0.182, 2.707e-6
0.183, 2.755e-6
0.184, 2.737e-6
0.185, 2.768e-6
0.186, 2.801e-6
0.187, 2.816e-6
0.188, 2.815e-6
0.189, 2.846e-6
0.190, 2.851e-6
0.191, 2.887e-6
0.192, 2.872e-6
0.193, 2.914e-6
0.194, 2.927e-6
0.195, 2.954e-6
0.196, 2.964e-6
0.197, 2.996e-6
0.198, 3.004e-6
0.199, 3.054e-6
0.200, 3.046e-6
0.201, 3.077e-6
0.202, 3.078e-6
0.203, 3.139e-6
0.204, 3.135e-6
0.205, 3.116e-6
0.206, 3.170e-6
0.207, 3.244e-6
0.208, 3.210e-6
0.209, 3.272e-6
0.210, 3.298e-6
0.211, 3.332e-6
0.212, 3.333e-6
0.213, 3.360e-6
0.214, 3.383e-6
0.215, 3.467e-6
0.216, 3.432e-6
0.217, 3.471e-6
0.218, 3.521e-6
0.219, 3.552e-6
0.220, 3.584e-6
0.221, 3.621e-6
0.222, 3.620e-6
0.223, 3.719e-6
0.224, 3.706e-6
0.225, 3.751e-6
0.226, 3.766e-6
0.227, 3.816e-6
0.228, 3.841e-6
0.229, 3.905e-6
0.230, 3.924e-6
0.231, 3.996e-6
0.232, 3.976e-6
0.233, 4.032e-6
0.234, 4.071e-6
0.235, 4.105e-6
0.236, 4.164e-6
0.237, 4.188e-6
0.238, 4.218e-6
0.239, 4.293e-6
0.240, 4.305e-6
0.241, 4.374e-6
0.242, 4.431e-6
0.243, 4.422e-6
0.244, 4.490e-6
0.245, 4.573e-6
0.246, 4.594e-6
0.247, 4.706e-6
0.248, 4.695e-6
0.249, 4.812e-6
0.250, 1.072e-6
0.249, -1.029e-6
0.248, -1.443e-6
0.247, -1.657e-6
0.246, -1.825e-6
0.245, -1.890e-6
0.244, -1.978e-6
0.243, -2.001e-6
0.242, -2.086e-6
0.241, -2.125e-6
0.240, -2.142e-6
0.239, -2.164e-6
0.238, -2.218e-6
0.237, -2.216e-6
0.236, -2.250e-6
0.235, -2.264e-6
0.234, -2.242e-6
0.233, -2.287e-6
0.232, -2.282e-6
0.231, -2.304e-6
0.230, -2.312e-6
0.229, -2.300e-6
0.228, -2.313e-6
0.227, -2.311e-6
0.226, -2.311e-6
0.225, -2.308e-6
0.224, -2.318e-6
0.223, -2.293e-6
0.222, -2.323e-6
0.221, -2.292e-6
0.220, -2.325e-6
0.219, -2.308e-6
0.218, -2.277e-6
0.217, -2.317e-6
0.216, -2.294e-6
0.215, -2.295e-6
0.214, -2.317e-6
0.213, -2.303e-6
0.212, -2.306e-6
0.211, -2.296e-6
0.210, -2.293e-6
0.209, -2.307e-6
0.208, -2.277e-6
0.207, -2.296e-6
0.206, -2.307e-6
0.205, -2.218e-6
0.204, -2.280e-6
0.203, -2.282e-6
0.202, -2.269e-6
0.201, -2.287e-6
0.200, -2.290e-6
0.199, -2.290e-6
0.198, -2.307e-6
0.197, -2.288e-6
0.196, -2.289e-6
0.195, -2.268e-6
0.194, -2.300e-6
0.193, -2.305e-6
0.192, -2.264e-6
0.191, -2.289e-6
0.190, -2.311e-6
0.189, -2.291e-6
0.188, -2.297e-6
0.187, -2.300e-6
0.186, -2.316e-6
0.185, -2.300e-6
0.184, -2.311e-6
0.183, -2.303e-6
0.182, -2.326e-6
0.181, -2.309e-6
0.180, -2.343e-6
0.179, -2.339e-6
0.178, -2.335e-6
0.177, -2.350e-6
0.176, -2.333e-6
0.175, -2.356e-6
0.174, -2.371e-6
0.173, -2.357e-6
0.172, -2.366e-6
0.171, -2.381e-6
0.170, -2.384e-6
0.169, -2.411e-6
0.168, -2.394e-6
0.167, -2.387e-6
0.166, -2.421e-6
0.165, -2.406e-6
0.164, -2.431e-6
0.163, -2.438e-6
0.162, -2.453e-6
0.161, -2.466e-6
0.160, -2.454e-6
0.159, -2.469e-6
0.158, -2.500e-6
0.157, -2.485e-6
0.156, -2.497e-6
0.155, -2.514e-6
0.154, -2.535e-6
0.153, -2.520e-6
0.152, -2.539e-6
0.151, -2.551e-6
0.150, -2.953e-7
0.151, 9.576e-7
0.152, 1.233e-6
0.153, 1.456e-6
0.154, 1.561e-6
0.155, 1.692e-6
0.156, 1.764e-6
0.157, 1.864e-6
0.158, 1.904e-6
0.159, 2.018e-6
0.160, 2.039e-6
0.161, 2.100e-6
0.162, 2.148e-6
0.163, 2.196e-6
0.164, 2.233e-6
0.165, 2.284e-6
0.166, 2.282e-6
0.167, 2.370e-6
0.168, 2.364e-6
0.169, 2.403e-6
0.170, 2.441e-6
0.171, 2.475e-6
0.172, 2.487e-6
0.173, 2.535e-6
0.174, 2.534e-6
0.175, 2.585e-6
0.176, 2.559e-6
0.177, 2.616e-6
0.178, 2.628e-6
0.179, 2.677e-6
0.180, 2.661e-6
0.181, 2.693e-6
0.182, 2.696e-6
0.183, 2.741e-6
0.184, 2.732e-6
0.185, 2.764e-6
0.186, 2.791e-6
0.187, 2.806e-6
0.188, 2.817e-6
0.189, 2.824e-6
0.190, 2.830e-6
0.191, 2.886e-6
0.192, 2.849e-6
0.193, 2.906e-6
0.194, 2.927e-6
0.195, 2.949e-6
0.196, 2.953e-6
0.197, 2.980e-6
0.198, 2.992e-6
0.199, 3.033e-6
0.200, 3.036e-6
0.201, 3.064e-6
0.202, 3.087e-6
0.203, 3.107e-6
0.204, 3.125e-6
0.205, 3.081e-6
0.206, 3.172e-6
0.207, 3.196e-6
0.208, 3.206e-6
0.209, 3.246e-6
0.210, 3.276e-6
0.211, 3.296e-6
0.212, 3.337e-6
0.213, 3.365e-6
0.214, 3.360e-6
0.215, 3.449e-6
0.216, 3.420e-6
0.217, 3.450e-6
0.218, 3.502e-6
0.219, 3.542e-6
0.220, 3.552e-6
0.221, 3.594e-6
0.222, 3.616e-6
0.223, 3.681e-6
0.224, 3.693e-6
0.225, 3.735e-6
0.226, 3.760e-6
0.227, 3.802e-6
0.228, 3.827e-6
0.229, 3.874e-6
0.230, 3.915e-6
0.231, 3.971e-6
0.232, 3.958e-6
0.233, 4.009e-6
0.234, 4.052e-6
0.235, 4.098e-6
0.236, 4.127e-6
0.237, 4.173e-6
0.238, 4.192e-6
0.239, 4.288e-6
0.240, 4.277e-6
0.241, 4.354e-6
0.242, 4.402e-6
0.243, 4.405e-6
0.244, 4.477e-6
0.245, 4.542e-6
0.246, 4.572e-6
0.247, 4.668e-6
0.248, 4.669e-6
0.249, 4.755e-6
0.250, 1.083e-6
0.249, -1.068e-6
0.248, -1.449e-6
0.247, -1.646e-6
0.246, -1.830e-6
0.245, -1.882e-6
0.244, -1.959e-6
0.243, -2.009e-6
0.242, -2.069e-6
0.241, -2.141e-6
0.240, -2.128e-6
0.239, -2.170e-6
0.238, -2.203e-6
0.237, -2.220e-6
0.236, -2.237e-6
0.235, -2.263e-6
0.234, -2.251e-6
0.233, -2.282e-6
0.232, -2.285e-6
0.231, -2.287e-6
0.230, -2.316e-6
0.229, -2.288e-6
0.228, -2.301e-6
0.227, -2.307e-6
0.226, -2.303e-6
0.225, -2.309e-6
0.224, -2.308e-6
0.223, -2.303e-6
0.222, -2.328e-6
0.221, -2.295e-6
0.220, -2.307e-6
0.219, -2.302e-6
0.218, -2.275e-6
0.217, -2.307e-6
0.216, -2.286e-6
0.215, -2.278e-6
0.214, -2.310e-6
0.213, -2.275e-6
0.212, -2.289e-6
0.211, -2.279e-6
0.210, -2.298e-6
0.209, -2.295e-6
0.208, -2.273e-6
0.207, -2.278e-6
0.206, -2.303e-6
0.205, -2.225e-6
0.204, -2.287e-6
0.203, -2.264e-6
0.202, -2.275e-6
0.201, -2.287e-6
0.200, -2.276e-6
0.199, -2.275e-6
0.198, -2.306e-6
0.197, -2.275e-6
0.196, -2.293e-6
0.195, -2.268e-6
0.194, -2.290e-6
0.193, -2.302e-6
0.192, -2.274e-6
0.191, -2.276e-6
0.190, -2.303e-6
0.189, -2.281e-6
0.188, -2.299e-6
0.187, -2.292e-6
0.186, -2.314e-6
0.185, -2.316e-6
0.184, -2.296e-6
0.183, -2.300e-6
0.182, -2.335e-6
0.181, -2.311e-6
0.180, -2.337e-6
0.179, -2.343e-6
0.178, -2.329e-6
0.177, -2.340e-6
0.176, -2.331e-6
0.175, -2.339e-6
0.174, -2.374e-6
0.173, -2.357e-6
0.172, -2.379e-6
0.171, -2.365e-6
0.170, -2.368e-6
0.169, -2.396e-6
0.168, -2.396e-6
0.167, -2.378e-6
0.166, -2.416e-6
0.165, -2.420e-6
0.164, -2.425e-6
0.163, -2.431e-6
0.162, -2.439e-6
0.161, -2.460e-6
0.160, -2.460e-6
0.159, -2.461e-6
0.158, -2.485e-6
0.157, -2.484e-6
0.156, -2.494e-6
0.155, -2.511e-6
0.154, -2.519e-6
0.153, -2.536e-6
0.152, -2.535e-6
0.151, -2.537e-6
0.150, -3.257e-7
0.151, 9.623e-7
0.152, 1.229e-6
0.153, 1.437e-6
0.154, 1.568e-6
0.155, 1.690e-6
0.156, 1.761e-6
0.157, 1.854e-6
0.158, 1.904e-6
0.159, 2.007e-6
0.160, 2.037e-6
0.161, 2.098e-6
0.162, 2.164e-6
0.163, 2.200e-6
0.164, 2.231e-6
0.165, 2.277e-6
0.166, 2.273e-6
0.167, 2.364e-6
0.168, 2.357e-6
0.169, 2.406e-6
0.170, 2.436e-6
0.171, 2.459e-6
0.172, 2.499e-6
0.173, 2.514e-6
0.174, 2.528e-6
0.175, 2.581e-6
0.176, 2.550e-6
0.177, 2.597e-6
0.178, 2.617e-6
0.179, 2.671e-6
0.180, 2.651e-6
0.181, 2.684e-6
0.182, 2.681e-6
0.183, 2.735e-6
0.184, 2.732e-6
0.185, 2.761e-6
0.186, 2.766e-6
0.187, 2.792e-6
0.188, 2.798e-6
0.189, 2.821e-6
0.190, 2.826e-6
0.191, 2.878e-6
0.192, 2.845e-6
0.193, 2.895e-6
0.194, 2.912e-6
0.195, 2.937e-6
0.196, 2.953e-6
0.197, 2.973e-6
0.198, 2.979e-6
0.199, 3.027e-6
0.200, 3.015e-6
0.201, 3.051e-6
0.202, 3.069e-6
0.203, 3.099e-6
0.204, 3.108e-6
0.205, 3.086e-6
0.206, 3.136e-6
0.207, 3.193e-6
0.208, 3.189e-6
0.209, 3.236e-6
0.210, 3.257e-6
0.211, 3.288e-6
0.212, 3.317e-6
0.213, 3.344e-6
0.214, 3.351e-6
0.215, 3.424e-6
0.216, 3.417e-6
0.217, 3.438e-6
0.218, 3.475e-6
0.219, 3.510e-6
0.220, 3.551e-6
0.221, 3.572e-6
0.222, 3.602e-6
0.223, 3.658e-6
0.224, 3.678e-6
0.225, 3.709e-6
0.226, 3.748e-6
0.227, 3.772e-6
0.228, 3.802e-6
0.229, 3.855e-6
0.230, 3.897e-6
0.231, 3.953e-6
0.232, 3.944e-6
0.233, 3.992e-6
0.234, 4.022e-6
0.235, 4.086e-6
0.236, 4.111e-6
0.237, 4.148e-6
0.238, 4.173e-6
0.239, 4.273e-6
0.240, 4.252e-6
0.241, 4.329e-6
0.242, 4.355e-6
0.243, 4.402e-6
0.244, 4.470e-6
0.245, 4.524e-6
0.246, 4.543e-6
0.247, 4.655e-6
0.248, 4.641e-6
0.249, 4.736e-6
0.250, 1.053e-6
0.249, -1.061e-6
0.248, -1.435e-6
0.247, -1.650e-6
0.246, -1.829e-6
0.245, -1.889e-6
0.244, -1.976e-6
0.243, -1.997e-6
0.242, -2.063e-6
0.241, -2.123e-6
0.240, -2.136e-6
0.239, -2.164e-6
0.238, -2.218e-6
0.237, -2.213e-6
0.236, -2.239e-6
0.235, -2.250e-6
0.234, -2.265e-6
0.233, -2.281e-6
0.232, -2.268e-6
0.231, -2.301e-6
0.230, -2.306e-6
0.229, -2.289e-6
0.228, -2.289e-6
0.227, -2.303e-6
0.226, -2.289e-6
0.225, -2.309e-6
0.224, -2.308e-6
0.223, -2.298e-6
0.222, -2.308e-6
0.221, -2.297e-6
0.220, -2.306e-6
0.219, -2.290e-6
0.218, -2.270e-6
0.217, -2.286e-6
0.216, -2.304e-6
0.215, -2.273e-6
0.214, -2.303e-6
0.213, -2.284e-6
0.212, -2.297e-6
0.211, -2.283e-6
0.210, -2.275e-6
0.209, -2.311e-6
0.208, -2.275e-6
0.207, -2.278e-6
0.206, -2.286e-6
0.205, -2.207e-6
0.204, -2.275e-6
0.203, -2.268e-6
0.202, -2.272e-6
0.201, -2.292e-6
0.200, -2.271e-6
0.199, -2.269e-6
0.198, -2.287e-6
0.197, -2.268e-6
0.196, -2.289e-6
0.195, -2.273e-6
0.194, -2.294e-6
0.193, -2.286e-6
0.192, -2.267e-6
0.191, -2.274e-6
0.190, -2.307e-6
0.189, -2.281e-6
0.188, -2.301e-6
0.187, -2.281e-6
0.186, -2.304e-6
0.185, -2.304e-6
0.184, -2.299e-6
0.183, -2.300e-6
0.182, -2.324e-6
0.181, -2.313e-6
0.180, -2.336e-6
0.179, -2.322e-6
0.178, -2.329e-6
0.177, -2.346e-6
0.176, -2.332e-6
0.175, -2.332e-6
0.174, -2.362e-6
0.173, -2.357e-6
0.172, -2.368e-6
0.171, -2.371e-6
0.170, -2.380e-6
0.169, -2.394e-6
0.168, -2.391e-6
0.167, -2.375e-6
0.166, -2.409e-6
0.165, -2.403e-6
0.164, -2.428e-6
0.163, -2.425e-6
0.162, -2.440e-6
0.161, -2.449e-6
0.160, -2.461e-6
0.159, -2.453e-6
0.158, -2.492e-6
0.157, -2.475e-6
0.156, -2.496e-6
0.155, -2.500e-6
0.154, -2.514e-6
0.153, -2.533e-6
0.152, -2.528e-6
0.151, -2.541e-6
0.150, -3.031e-7
0.151, 9.662e-7
0.152, 1.232e-6
0.153, 1.435e-6
0.154, 1.572e-6
0.155, 1.673e-6
0.156, 1.768e-6
0.157, 1.860e-6
0.158, 1.907e-6
0.159, 2.002e-6
0.160, 2.028e-6
0.161, 2.100e-6
0.162, 2.161e-6
0.163, 2.182e-6
0.164, 2.234e-6
0.165, 2.275e-6
0.166, 2.267e-6
0.167, 2.361e-6
0.168, 2.356e-6
0.169, 2.403e-6
0.170, 2.425e-6
0.171, 2.459e-6
0.172, 2.475e-6
0.173, 2.502e-6
0.174, 2.520e-6
0.175, 2.565e-6
0.176, 2.556e-6
0.177, 2.600e-6
0.178, 2.603e-6
0.179, 2.661e-6
0.180, 2.652e-6
0.181, 2.686e-6
0.182, 2.665e-6
0.183, 2.733e-6
0.184, 2.715e-6
0.185, 2.746e-6
0.186, 2.765e-6
0.187, 2.785e-6
0.188, 2.804e-6
0.189, 2.814e-6
0.190, 2.818e-6
0.191, 2.869e-6
0.192, 2.840e-6
0.193, 2.893e-6
0.194, 2.906e-6
0.195, 2.937e-6
0.196, 2.939e-6
0.197, 2.967e-6
0.198, 2.953e-6
0.199, 3.009e-6
0.200, 3.020e-6
0.201, 3.039e-6
0.202, 3.058e-6
0.203, 3.088e-6
0.204, 3.099e-6
0.205, 3.067e-6
0.206, 3.137e-6
0.207, 3.191e-6
0.208, 3.180e-6
0.209, 3.213e-6
0.210, 3.245e-6
0.211, 3.282e-6
0.212, 3.317e-6
0.213, 3.327e-6
0.214, 3.356e-6
0.215, 3.392e-6
0.216, 3.399e-6
0.217, 3.431e-6
0.218, 3.473e-6
0.219, 3.494e-6
0.220, 3.549e-6
0.221, 3.567e-6
0.222, 3.588e-6
0.223, 3.656e-6
0.224, 3.658e-6
0.225, 3.708e-6
0.226, 3.716e-6
0.227, 3.764e-6
0.228, 3.795e-6
0.229, 3.842e-6
0.230, 3.881e-6
0.231, 3.928e-6
0.232, 3.937e-6
0.233, 3.991e-6
0.234, 3.989e-6
0.235, 4.071e-6
0.236, 4.100e-6
0.237, 4.146e-6
0.238, 4.162e-6
0.239, 4.256e-6
0.240, 4.244e-6
0.241, 4.316e-6
0.242, 4.366e-6
0.243, 4.384e-6
0.244, 4.462e-6
0.245, 4.501e-6
0.246, 4.535e-6
0.247, 4.626e-6
0.248, 4.640e-6
0.249, 4.719e-6
0.250, 1.029e-6
0.249, -1.058e-6
0.248, -1.410e-6
0.247, -1.668e-6
0.246, -1.822e-6
0.245, -1.885e-6
0.244, -1.975e-6
0.243, -2.018e-6
0.242, -2.067e-6
0.241, -2.129e-6
0.240, -2.135e-6
0.239, -2.151e-6
0.238, -2.209e-6
0.237, -2.199e-6
0.236, -2.239e-6
0.235, -2.244e-6
0.234, -2.251e-6
0.233, -2.268e-6
0.232, -2.263e-6
0.231, -2.298e-6
0.230, -2.311e-6
0.229, -2.297e-6
0.228, -2.289e-6
0.227, -2.282e-6
0.226, -2.299e-6
0.225, -2.305e-6
0.224, -2.280e-6
0.223, -2.283e-6
0.222, -2.316e-6
0.221, -2.286e-6
0.220, -2.292e-6
0.219, -2.283e-6
0.218, -2.263e-6
0.217, -2.303e-6
0.216, -2.279e-6
0.215, -2.273e-6
0.214, -2.299e-6
0.213, -2.267e-6
0.212, -2.300e-6
0.211, -2.290e-6
0.210, -2.278e-6
0.209, -2.289e-6
0.208, -2.268e-6
0.207, -2.266e-6
0.206, -2.280e-6
0.205, -2.191e-6
0.204, -2.272e-6
0.203, -2.274e-6
0.202, -2.265e-6
0.201, -2.270e-6
0.200, -2.264e-6
0.199, -2.271e-6
0.198, -2.278e-6
0.197, -2.269e-6
0.196, -2.271e-6
0.195, -2.264e-6
0.194, -2.262e-6
0.193, -2.279e-6
0.192, -2.253e-6
0.191, -2.275e-6
0.190, -2.293e-6
0.189, -2.264e-6
0.188, -2.294e-6
0.187, -2.270e-6
0.186, -2.296e-6
0.185, -2.311e-6
0.184, -2.286e-6
0.183, -2.300e-6
0.182, -2.313e-6
0.181, -2.308e-6
0.180, -2.328e-6
0.179, -2.326e-6
0.178, -2.322e-6
0.177, -2.345e-6
0.176, -2.320e-6
0.175, -2.341e-6
0.174, -2.355e-6
0.173, -2.350e-6
0.172, -2.366e-6
0.171, -2.368e-6
0.170, -2.377e-6
0.169, -2.371e-6
0.168, -2.374e-6
0.167, -2.374e-6
0.166, -2.414e-6
0.165, -2.401e-6
0.164, -2.407e-6
0.163, -2.416e-6
0.162, -2.437e-6
0.161, -2.453e-6
0.160, -2.439e-6
0.159, -2.461e-6
0.158, -2.486e-6
0.157, -2.460e-6
0.156, -2.500e-6
0.155, -2.496e-6
0.154, -2.521e-6
0.153, -2.528e-6
0.152, -2.525e-6
0.151, -2.534e-6
