Sept. 9, 2026   18:13:17
Cyclic Voltammetry
File: d:\desktop\sample\ni foil\ni_foil_cv 120 mv.bin
Data Source:  Experiment
Instrument Model:  CHI660D
Header: 
Note: 

Init E (V) = 0.15
High E (V) = 0.25
Low E (V) = 0.15
Init P/N = P
Scan Rate (V/s) = 0.12
Segment = 20
Sample Interval (V) = 0.001
Quiet Time (sec) = 10
Sensitivity (A/V) = 0.001

Results:

Channel 1:
Segment 1:

Segment 2:

Segment 3:

Segment 4:

Segment 5:

Segment 6:

Segment 7:

Segment 8:

Segment 9:

Segment 10:

Segment 11:

Segment 12:

Segment 13:

Segment 14:

Segment 15:

Segment 16:

Segment 17:

Segment 18:

Segment 19:

Segment 20:

Potential/V, Current/A

0.150, 9.861e-6
0.151, 1.504e-5
0.152, 1.603e-5
0.153, 1.693e-5
0.154, 1.751e-5
0.155, 1.796e-5
0.156, 1.819e-5
0.157, 1.865e-5
0.158, 1.886e-5
0.159, 1.940e-5
0.160, 1.941e-5
0.161, 1.982e-5
0.162, 2.012e-5
0.163, 2.019e-5
0.164, 2.050e-5
0.165, 2.059e-5
0.166, 2.070e-5
0.167, 2.116e-5
0.168, 2.105e-5
0.169, 2.141e-5
0.170, 2.167e-5
0.171, 2.182e-5
0.172, 2.185e-5
0.173, 2.217e-5
0.174, 2.210e-5
0.175, 2.252e-5
0.176, 2.253e-5
0.177, 2.284e-5
0.178, 2.286e-5
0.179, 2.339e-5
0.180, 2.320e-5
0.181, 2.346e-5
0.182, 2.351e-5
0.183, 2.391e-5
0.184, 2.374e-5
0.185, 2.411e-5
0.186, 2.430e-5
0.187, 2.440e-5
0.188, 2.462e-5
0.189, 2.461e-5
0.190, 2.484e-5
0.191, 2.511e-5
0.192, 2.497e-5
0.193, 2.545e-5
0.194, 2.556e-5
0.195, 2.588e-5
0.196, 2.589e-5
0.197, 2.618e-5
0.198, 2.636e-5
0.199, 2.655e-5
0.200, 2.656e-5
0.201, 2.696e-5
0.202, 2.714e-5
0.203, 2.727e-5
0.204, 2.746e-5
0.205, 2.726e-5
0.206, 2.780e-5
0.207, 2.816e-5
0.208, 2.821e-5
0.209, 2.873e-5
0.210, 2.879e-5
0.211, 2.910e-5
0.212, 2.924e-5
0.213, 2.962e-5
0.214, 2.968e-5
0.215, 3.018e-5
0.216, 3.029e-5
0.217, 3.049e-5
0.218, 3.072e-5
0.219, 3.098e-5
0.220, 3.126e-5
0.221, 3.161e-5
0.222, 3.186e-5
0.223, 3.233e-5
0.224, 3.237e-5
0.225, 3.289e-5
0.226, 3.309e-5
0.227, 3.335e-5
0.228, 3.371e-5
0.229, 3.395e-5
0.230, 3.449e-5
0.231, 3.492e-5
0.232, 3.479e-5
0.233, 3.554e-5
0.234, 3.553e-5
0.235, 3.612e-5
0.236, 3.657e-5
0.237, 3.674e-5
0.238, 3.707e-5
0.239, 3.779e-5
0.240, 3.771e-5
0.241, 3.834e-5
0.242, 3.870e-5
0.243, 3.884e-5
0.244, 3.954e-5
0.245, 4.000e-5
0.246, 4.029e-5
0.247, 4.088e-5
0.248, 4.117e-5
0.249, 4.172e-5
0.250, 1.262e-5
0.249, -6.085e-6
0.248, -1.046e-5
0.247, -1.333e-5
0.246, -1.546e-5
0.245, -1.696e-5
0.244, -1.819e-5
0.243, -1.883e-5
0.242, -1.990e-5
0.241, -2.069e-5
0.240, -2.099e-5
0.239, -2.163e-5
0.238, -2.226e-5
0.237, -2.248e-5
0.236, -2.279e-5
0.235, -2.295e-5
0.234, -2.322e-5
0.233, -2.353e-5
0.232, -2.343e-5
0.231, -2.390e-5
0.230, -2.393e-5
0.229, -2.389e-5
0.228, -2.393e-5
0.227, -2.404e-5
0.226, -2.405e-5
0.225, -2.413e-5
0.224, -2.421e-5
0.223, -2.394e-5
0.222, -2.429e-5
0.221, -2.407e-5
0.220, -2.418e-5
0.219, -2.405e-5
0.218, -2.405e-5
0.217, -2.402e-5
0.216, -2.394e-5
0.215, -2.388e-5
0.214, -2.417e-5
0.213, -2.374e-5
0.212, -2.397e-5
0.211, -2.384e-5
0.210, -2.381e-5
0.209, -2.392e-5
0.208, -2.357e-5
0.207, -2.352e-5
0.206, -2.384e-5
0.205, -2.289e-5
0.204, -2.368e-5
0.203, -2.332e-5
0.202, -2.353e-5
0.201, -2.352e-5
0.200, -2.332e-5
0.199, -2.325e-5
0.198, -2.352e-5
0.197, -2.317e-5
0.196, -2.337e-5
0.195, -2.321e-5
0.194, -2.331e-5
0.193, -2.317e-5
0.192, -2.290e-5
0.191, -2.305e-5
0.190, -2.331e-5
0.189, -2.290e-5
0.188, -2.318e-5
0.187, -2.299e-5
0.186, -2.312e-5
0.185, -2.293e-5
0.184, -2.291e-5
0.183, -2.296e-5
0.182, -2.315e-5
0.181, -2.282e-5
0.180, -2.302e-5
0.179, -2.300e-5
0.178, -2.301e-5
0.177, -2.316e-5
0.176, -2.282e-5
0.175, -2.301e-5
0.174, -2.307e-5
0.173, -2.290e-5
0.172, -2.300e-5
0.171, -2.298e-5
0.170, -2.309e-5
0.169, -2.316e-5
0.168, -2.292e-5
0.167, -2.283e-5
0.166, -2.319e-5
0.165, -2.305e-5
0.164, -2.323e-5
0.163, -2.302e-5
0.162, -2.328e-5
0.161, -2.326e-5
0.160, -2.318e-5
0.159, -2.333e-5
0.158, -2.341e-5
0.157, -2.330e-5
0.156, -2.357e-5
0.155, -2.341e-5
0.154, -2.368e-5
0.153, -2.354e-5
0.152, -2.366e-5
0.151, -2.360e-5
0.150, -4.122e-6
0.151, 6.424e-6
0.152, 8.472e-6
0.153, 1.017e-5
0.154, 1.114e-5
0.155, 1.205e-5
0.156, 1.289e-5
0.157, 1.349e-5
0.158, 1.397e-5
0.159, 1.471e-5
0.160, 1.492e-5
0.161, 1.553e-5
0.162, 1.585e-5
0.163, 1.628e-5
0.164, 1.649e-5
0.165, 1.696e-5
0.166, 1.689e-5
0.167, 1.765e-5
0.168, 1.766e-5
0.169, 1.808e-5
0.170, 1.819e-5
0.171, 1.863e-5
0.172, 1.877e-5
0.173, 1.909e-5
0.174, 1.915e-5
0.175, 1.965e-5
0.176, 1.942e-5
0.177, 1.993e-5
0.178, 2.009e-5
0.179, 2.037e-5
0.180, 2.056e-5
0.181, 2.070e-5
0.182, 2.073e-5
0.183, 2.125e-5
0.184, 2.110e-5
0.185, 2.156e-5
0.186, 2.152e-5
0.187, 2.199e-5
0.188, 2.208e-5
0.189, 2.199e-5
0.190, 2.226e-5
0.191, 2.279e-5
0.192, 2.250e-5
0.193, 2.292e-5
0.194, 2.314e-5
0.195, 2.338e-5
0.196, 2.368e-5
0.197, 2.365e-5
0.198, 2.390e-5
0.199, 2.427e-5
0.200, 2.420e-5
0.201, 2.461e-5
0.202, 2.472e-5
0.203, 2.505e-5
0.204, 2.510e-5
0.205, 2.489e-5
0.206, 2.542e-5
0.207, 2.599e-5
0.208, 2.592e-5
0.209, 2.621e-5
0.210, 2.657e-5
0.211, 2.680e-5
0.212, 2.705e-5
0.213, 2.722e-5
0.214, 2.752e-5
0.215, 2.783e-5
0.216, 2.785e-5
0.217, 2.821e-5
0.218, 2.845e-5
0.219, 2.881e-5
0.220, 2.920e-5
0.221, 2.933e-5
0.222, 2.954e-5
0.223, 3.032e-5
0.224, 3.010e-5
0.225, 3.071e-5
0.226, 3.084e-5
0.227, 3.123e-5
0.228, 3.161e-5
0.229, 3.178e-5
0.230, 3.217e-5
0.231, 3.276e-5
0.232, 3.273e-5
0.233, 3.336e-5
0.234, 3.353e-5
0.235, 3.395e-5
0.236, 3.444e-5
0.237, 3.479e-5
0.238, 3.500e-5
0.239, 3.555e-5
0.240, 3.586e-5
0.241, 3.645e-5
0.242, 3.658e-5
0.243, 3.690e-5
0.244, 3.751e-5
0.245, 3.797e-5
0.246, 3.827e-5
0.247, 3.895e-5
0.248, 3.907e-5
0.249, 3.991e-5
0.250, 1.075e-5
0.249, -7.795e-6
0.248, -1.208e-5
0.247, -1.496e-5
0.246, -1.702e-5
0.245, -1.835e-5
0.244, -1.949e-5
0.243, -2.031e-5
0.242, -2.133e-5
0.241, -2.189e-5
0.240, -2.232e-5
0.239, -2.275e-5
0.238, -2.342e-5
0.237, -2.339e-5
0.236, -2.391e-5
0.235, -2.393e-5
0.234, -2.423e-5
0.233, -2.439e-5
0.232, -2.448e-5
0.231, -2.468e-5
0.230, -2.484e-5
0.229, -2.469e-5
0.228, -2.485e-5
0.227, -2.473e-5
0.226, -2.481e-5
0.225, -2.490e-5
0.224, -2.479e-5
0.223, -2.472e-5
0.222, -2.492e-5
0.221, -2.461e-5
0.220, -2.490e-5
0.219, -2.462e-5
0.218, -2.468e-5
0.217, -2.454e-5
0.216, -2.463e-5
0.215, -2.457e-5
0.214, -2.451e-5
0.213, -2.448e-5
0.212, -2.453e-5
0.211, -2.438e-5
0.210, -2.435e-5
0.209, -2.432e-5
0.208, -2.411e-5
0.207, -2.418e-5
0.206, -2.429e-5
0.205, -2.344e-5
0.204, -2.404e-5
0.203, -2.381e-5
0.202, -2.408e-5
0.201, -2.382e-5
0.200, -2.384e-5
0.199, -2.383e-5
0.198, -2.391e-5
0.197, -2.367e-5
0.196, -2.374e-5
0.195, -2.355e-5
0.194, -2.360e-5
0.193, -2.369e-5
0.192, -2.333e-5
0.191, -2.347e-5
0.190, -2.362e-5
0.189, -2.325e-5
0.188, -2.360e-5
0.187, -2.332e-5
0.186, -2.353e-5
0.185, -2.341e-5
0.184, -2.323e-5
0.183, -2.328e-5
0.182, -2.357e-5
0.181, -2.327e-5
0.180, -2.344e-5
0.179, -2.340e-5
0.178, -2.344e-5
0.177, -2.341e-5
0.176, -2.325e-5
0.175, -2.320e-5
0.174, -2.341e-5
0.173, -2.339e-5
0.172, -2.333e-5
0.171, -2.340e-5
0.170, -2.342e-5
0.169, -2.346e-5
0.168, -2.337e-5
0.167, -2.327e-5
0.166, -2.356e-5
0.165, -2.336e-5
0.164, -2.358e-5
0.163, -2.346e-5
0.162, -2.341e-5
0.161, -2.377e-5
0.160, -2.366e-5
0.159, -2.357e-5
0.158, -2.386e-5
0.157, -2.373e-5
0.156, -2.386e-5
0.155, -2.371e-5
0.154, -2.405e-5
0.153, -2.396e-5
0.152, -2.401e-5
0.151, -2.399e-5
0.150, -4.548e-6
0.151, 6.170e-6
0.152, 8.259e-6
0.153, 9.821e-6
0.154, 1.096e-5
0.155, 1.182e-5
0.156, 1.254e-5
0.157, 1.317e-5
0.158, 1.372e-5
0.159, 1.455e-5
0.160, 1.474e-5
0.161, 1.532e-5
0.162, 1.565e-5
0.163, 1.595e-5
0.164, 1.646e-5
0.165, 1.658e-5
0.166, 1.676e-5
0.167, 1.747e-5
0.168, 1.742e-5
0.169, 1.786e-5
0.170, 1.803e-5
0.171, 1.835e-5
0.172, 1.856e-5
0.173, 1.888e-5
0.174, 1.892e-5
0.175, 1.956e-5
0.176, 1.931e-5
0.177, 1.975e-5
0.178, 1.989e-5
0.179, 2.019e-5
0.180, 2.029e-5
0.181, 2.046e-5
0.182, 2.062e-5
0.183, 2.109e-5
0.184, 2.101e-5
0.185, 2.130e-5
0.186, 2.148e-5
0.187, 2.161e-5
0.188, 2.190e-5
0.189, 2.197e-5
0.190, 2.210e-5
0.191, 2.248e-5
0.192, 2.230e-5
0.193, 2.276e-5
0.194, 2.287e-5
0.195, 2.308e-5
0.196, 2.338e-5
0.197, 2.356e-5
0.198, 2.359e-5
0.199, 2.419e-5
0.200, 2.394e-5
0.201, 2.421e-5
0.202, 2.462e-5
0.203, 2.479e-5
0.204, 2.484e-5
0.205, 2.456e-5
0.206, 2.525e-5
0.207, 2.578e-5
0.208, 2.553e-5
0.209, 2.611e-5
0.210, 2.637e-5
0.211, 2.653e-5
0.212, 2.676e-5
0.213, 2.705e-5
0.214, 2.716e-5
0.215, 2.764e-5
0.216, 2.759e-5
0.217, 2.804e-5
0.218, 2.819e-5
0.219, 2.862e-5
0.220, 2.884e-5
0.221, 2.921e-5
0.222, 2.936e-5
0.223, 2.988e-5
0.224, 2.974e-5
0.225, 3.039e-5
0.226, 3.072e-5
0.227, 3.087e-5
0.228, 3.118e-5
0.229, 3.173e-5
0.230, 3.190e-5
0.231, 3.250e-5
0.232, 3.233e-5
0.233, 3.305e-5
0.234, 3.327e-5
0.235, 3.366e-5
0.236, 3.398e-5
0.237, 3.429e-5
0.238, 3.466e-5
0.239, 3.552e-5
0.240, 3.526e-5
0.241, 3.604e-5
0.242, 3.642e-5
0.243, 3.658e-5
0.244, 3.715e-5
0.245, 3.761e-5
0.246, 3.792e-5
0.247, 3.850e-5
0.248, 3.884e-5
0.249, 3.955e-5
0.250, 1.041e-5
0.249, -8.062e-6
0.248, -1.238e-5
0.247, -1.530e-5
0.246, -1.733e-5
0.245, -1.849e-5
0.244, -1.989e-5
0.243, -2.047e-5
0.242, -2.170e-5
0.241, -2.216e-5
0.240, -2.256e-5
0.239, -2.293e-5
0.238, -2.355e-5
0.237, -2.382e-5
0.236, -2.398e-5
0.235, -2.420e-5
0.234, -2.430e-5
0.233, -2.462e-5
0.232, -2.468e-5
0.231, -2.489e-5
0.230, -2.500e-5
0.229, -2.476e-5
0.228, -2.504e-5
0.227, -2.483e-5
0.226, -2.496e-5
0.225, -2.507e-5
0.224, -2.496e-5
0.223, -2.492e-5
0.222, -2.509e-5
0.221, -2.483e-5
0.220, -2.496e-5
0.219, -2.479e-5
0.218, -2.459e-5
0.217, -2.485e-5
0.216, -2.474e-5
0.215, -2.447e-5
0.214, -2.478e-5
0.213, -2.457e-5
0.212, -2.473e-5
0.211, -2.443e-5
0.210, -2.446e-5
0.209, -2.451e-5
0.208, -2.423e-5
0.207, -2.422e-5
0.206, -2.439e-5
0.205, -2.362e-5
0.204, -2.409e-5
0.203, -2.406e-5
0.202, -2.400e-5
0.201, -2.413e-5
0.200, -2.395e-5
0.199, -2.381e-5
0.198, -2.404e-5
0.197, -2.381e-5
0.196, -2.383e-5
0.195, -2.367e-5
0.194, -2.375e-5
0.193, -2.366e-5
0.192, -2.353e-5
0.191, -2.354e-5
0.190, -2.379e-5
0.189, -2.344e-5
0.188, -2.356e-5
0.187, -2.358e-5
0.186, -2.353e-5
0.185, -2.356e-5
0.184, -2.349e-5
0.183, -2.329e-5
0.182, -2.352e-5
0.181, -2.345e-5
0.180, -2.351e-5
0.179, -2.362e-5
0.178, -2.333e-5
0.177, -2.344e-5
0.176, -2.352e-5
0.175, -2.343e-5
0.174, -2.356e-5
0.173, -2.334e-5
0.172, -2.361e-5
0.171, -2.350e-5
0.170, -2.349e-5
0.169, -2.351e-5
0.168, -2.349e-5
0.167, -2.338e-5
0.166, -2.359e-5
0.165, -2.354e-5
0.164, -2.361e-5
0.163, -2.364e-5
0.162, -2.367e-5
0.161, -2.377e-5
0.160, -2.383e-5
0.159, -2.384e-5
0.158, -2.394e-5
0.157, -2.384e-5
0.156, -2.396e-5
0.155, -2.401e-5
0.154, -2.412e-5
0.153, -2.413e-5
0.152, -2.408e-5
0.151, -2.414e-5
0.150, -4.591e-6
0.151, 6.078e-6
0.152, 8.230e-6
0.153, 9.795e-6
0.154, 1.084e-5
0.155, 1.178e-5
0.156, 1.254e-5
0.157, 1.318e-5
0.158, 1.356e-5
0.159, 1.447e-5
0.160, 1.464e-5
0.161, 1.515e-5
0.162, 1.565e-5
0.163, 1.594e-5
0.164, 1.636e-5
0.165, 1.661e-5
0.166, 1.656e-5
0.167, 1.733e-5
0.168, 1.740e-5
0.169, 1.771e-5
0.170, 1.802e-5
0.171, 1.824e-5
0.172, 1.842e-5
0.173, 1.880e-5
0.174, 1.894e-5
0.175, 1.938e-5
0.176, 1.925e-5
0.177, 1.961e-5
0.178, 1.989e-5
0.179, 2.023e-5
0.180, 2.020e-5
0.181, 2.048e-5
0.182, 2.053e-5
0.183, 2.087e-5
0.184, 2.088e-5
0.185, 2.118e-5
0.186, 2.140e-5
0.187, 2.163e-5
0.188, 2.171e-5
0.189, 2.205e-5
0.190, 2.201e-5
0.191, 2.251e-5
0.192, 2.233e-5
0.193, 2.260e-5
0.194, 2.276e-5
0.195, 2.309e-5
0.196, 2.321e-5
0.197, 2.354e-5
0.198, 2.355e-5
0.199, 2.399e-5
0.200, 2.397e-5
0.201, 2.422e-5
0.202, 2.450e-5
0.203, 2.467e-5
0.204, 2.480e-5
0.205, 2.462e-5
0.206, 2.505e-5
0.207, 2.572e-5
0.208, 2.558e-5
0.209, 2.596e-5
0.210, 2.611e-5
0.211, 2.646e-5
0.212, 2.683e-5
0.213, 2.694e-5
0.214, 2.693e-5
0.215, 2.759e-5
0.216, 2.754e-5
0.217, 2.775e-5
0.218, 2.813e-5
0.219, 2.849e-5
0.220, 2.888e-5
0.221, 2.895e-5
0.222, 2.912e-5
0.223, 2.978e-5
0.224, 2.975e-5
0.225, 3.027e-5
0.226, 3.044e-5
0.227, 3.082e-5
0.228, 3.117e-5
0.229, 3.146e-5
0.230, 3.185e-5
0.231, 3.228e-5
0.232, 3.232e-5
0.233, 3.289e-5
0.234, 3.316e-5
0.235, 3.361e-5
0.236, 3.386e-5
0.237, 3.423e-5
0.238, 3.458e-5
0.239, 3.519e-5
0.240, 3.534e-5
0.241, 3.567e-5
0.242, 3.623e-5
0.243, 3.636e-5
0.244, 3.708e-5
0.245, 3.759e-5
0.246, 3.757e-5
0.247, 3.855e-5
0.248, 3.881e-5
0.249, 3.926e-5
0.250, 1.031e-5
0.249, -8.136e-6
0.248, -1.259e-5
0.247, -1.550e-5
0.246, -1.747e-5
0.245, -1.866e-5
0.244, -1.992e-5
0.243, -2.058e-5
0.242, -2.161e-5
0.241, -2.239e-5
0.240, -2.263e-5
0.239, -2.310e-5
0.238, -2.361e-5
0.237, -2.367e-5
0.236, -2.424e-5
0.235, -2.418e-5
0.234, -2.453e-5
0.233, -2.456e-5
0.232, -2.479e-5
0.231, -2.494e-5
0.230, -2.504e-5
0.229, -2.497e-5
0.228, -2.502e-5
0.227, -2.491e-5
0.226, -2.509e-5
0.225, -2.504e-5
0.224, -2.505e-5
0.223, -2.502e-5
0.222, -2.511e-5
0.221, -2.496e-5
0.220, -2.490e-5
0.219, -2.486e-5
0.218, -2.490e-5
0.217, -2.483e-5
0.216, -2.460e-5
0.215, -2.468e-5
0.214, -2.479e-5
0.213, -2.457e-5
0.212, -2.468e-5
0.211, -2.452e-5
0.210, -2.453e-5
0.209, -2.440e-5
0.208, -2.439e-5
0.207, -2.432e-5
0.206, -2.447e-5
0.205, -2.359e-5
0.204, -2.429e-5
0.203, -2.399e-5
0.202, -2.412e-5
0.201, -2.410e-5
0.200, -2.387e-5
0.199, -2.396e-5
0.198, -2.400e-5
0.197, -2.373e-5
0.196, -2.391e-5
0.195, -2.384e-5
0.194, -2.381e-5
0.193, -2.375e-5
0.192, -2.350e-5
0.191, -2.363e-5
0.190, -2.379e-5
0.189, -2.350e-5
0.188, -2.371e-5
0.187, -2.349e-5
0.186, -2.369e-5
0.185, -2.355e-5
0.184, -2.353e-5
0.183, -2.335e-5
0.182, -2.365e-5
0.181, -2.350e-5
0.180, -2.362e-5
0.179, -2.360e-5
0.178, -2.347e-5
0.177, -2.350e-5
0.176, -2.346e-5
0.175, -2.349e-5
0.174, -2.357e-5
0.173, -2.346e-5
0.172, -2.367e-5
0.171, -2.346e-5
0.170, -2.359e-5
0.169, -2.362e-5
0.168, -2.357e-5
0.167, -2.344e-5
0.166, -2.375e-5
0.165, -2.363e-5
0.164, -2.369e-5
0.163, -2.356e-5
0.162, -2.390e-5
0.161, -2.377e-5
0.160, -2.377e-5
0.159, -2.391e-5
0.158, -2.410e-5
0.157, -2.386e-5
0.156, -2.406e-5
0.155, -2.390e-5
0.154, -2.431e-5
0.153, -2.420e-5
0.152, -2.412e-5
0.151, -2.418e-5
0.150, -4.714e-6
0.151, 6.190e-6
0.152, 8.024e-6
0.153, 9.869e-6
0.154, 1.067e-5
0.155, 1.172e-5
0.156, 1.254e-5
0.157, 1.316e-5
0.158, 1.358e-5
0.159, 1.445e-5
0.160, 1.458e-5
0.161, 1.515e-5
0.162, 1.555e-5
0.163, 1.588e-5
0.164, 1.630e-5
0.165, 1.678e-5
0.166, 1.658e-5
0.167, 1.735e-5
0.168, 1.733e-5
0.169, 1.773e-5
0.170, 1.795e-5
0.171, 1.828e-5
0.172, 1.850e-5
0.173, 1.869e-5
0.174, 1.882e-5
0.175, 1.937e-5
0.176, 1.916e-5
0.177, 1.961e-5
0.178, 1.979e-5
0.179, 2.024e-5
0.180, 2.021e-5
0.181, 2.038e-5
0.182, 2.049e-5
0.183, 2.102e-5
0.184, 2.085e-5
0.185, 2.122e-5
0.186, 2.139e-5
0.187, 2.151e-5
0.188, 2.164e-5
0.189, 2.191e-5
0.190, 2.193e-5
0.191, 2.255e-5
0.192, 2.208e-5
0.193, 2.263e-5
0.194, 2.284e-5
0.195, 2.299e-5
0.196, 2.323e-5
0.197, 2.340e-5
0.198, 2.351e-5
0.199, 2.398e-5
0.200, 2.393e-5
0.201, 2.421e-5
0.202, 2.446e-5
0.203, 2.458e-5
0.204, 2.476e-5
0.205, 2.444e-5
0.206, 2.509e-5
0.207, 2.566e-5
0.208, 2.550e-5
0.209, 2.594e-5
0.210, 2.622e-5
0.211, 2.640e-5
0.212, 2.662e-5
0.213, 2.690e-5
0.214, 2.700e-5
0.215, 2.749e-5
0.216, 2.741e-5
0.217, 2.772e-5
0.218, 2.810e-5
0.219, 2.848e-5
0.220, 2.856e-5
0.221, 2.900e-5
0.222, 2.923e-5
0.223, 2.973e-5
0.224, 2.970e-5
0.225, 3.017e-5
0.226, 3.047e-5
0.227, 3.075e-5
0.228, 3.111e-5
0.229, 3.142e-5
0.230, 3.173e-5
0.231, 3.229e-5
0.232, 3.225e-5
0.233, 3.288e-5
0.234, 3.314e-5
0.235, 3.346e-5
0.236, 3.385e-5
0.237, 3.426e-5
0.238, 3.444e-5
0.239, 3.522e-5
0.240, 3.517e-5
0.241, 3.585e-5
0.242, 3.611e-5
0.243, 3.642e-5
0.244, 3.690e-5
0.245, 3.724e-5
0.246, 3.772e-5
0.247, 3.848e-5
0.248, 3.842e-5
0.249, 3.923e-5
0.250, 1.038e-5
0.249, -8.309e-6
0.248, -1.279e-5
0.247, -1.525e-5
0.246, -1.755e-5
0.245, -1.886e-5
0.244, -2.006e-5
0.243, -2.072e-5
0.242, -2.159e-5
0.241, -2.233e-5
0.240, -2.268e-5
0.239, -2.320e-5
0.238, -2.377e-5
0.237, -2.381e-5
0.236, -2.421e-5
0.235, -2.431e-5
0.234, -2.447e-5
0.233, -2.465e-5
0.232, -2.487e-5
0.231, -2.488e-5
0.230, -2.519e-5
0.229, -2.494e-5
0.228, -2.515e-5
0.227, -2.486e-5
0.226, -2.511e-5
0.225, -2.511e-5
0.224, -2.516e-5
0.223, -2.487e-5
0.222, -2.530e-5
0.221, -2.484e-5
0.220, -2.507e-5
0.219, -2.491e-5
0.218, -2.477e-5
0.217, -2.488e-5
0.216, -2.485e-5
0.215, -2.459e-5
0.214, -2.488e-5
0.213, -2.459e-5
0.212, -2.462e-5
0.211, -2.452e-5
0.210, -2.460e-5
0.209, -2.458e-5
0.208, -2.450e-5
0.207, -2.414e-5
0.206, -2.454e-5
0.205, -2.363e-5
0.204, -2.419e-5
0.203, -2.410e-5
0.202, -2.416e-5
0.201, -2.404e-5
0.200, -2.408e-5
0.199, -2.392e-5
0.198, -2.404e-5
0.197, -2.376e-5
0.196, -2.405e-5
0.195, -2.381e-5
0.194, -2.375e-5
0.193, -2.384e-5
0.192, -2.352e-5
0.191, -2.358e-5
0.190, -2.385e-5
0.189, -2.359e-5
0.188, -2.367e-5
0.187, -2.351e-5
0.186, -2.361e-5
0.185, -2.366e-5
0.184, -2.355e-5
0.183, -2.347e-5
0.182, -2.359e-5
0.181, -2.347e-5
0.180, -2.358e-5
0.179, -2.360e-5
0.178, -2.366e-5
0.177, -2.362e-5
0.176, -2.348e-5
0.175, -2.343e-5
0.174, -2.364e-5
0.173, -2.352e-5
0.172, -2.367e-5
0.171, -2.356e-5
0.170, -2.360e-5
0.169, -2.361e-5
0.168, -2.361e-5
0.167, -2.346e-5
0.166, -2.383e-5
0.165, -2.356e-5
0.164, -2.375e-5
0.163, -2.377e-5
0.162, -2.380e-5
0.161, -2.384e-5
0.160, -2.388e-5
0.159, -2.379e-5
0.158, -2.406e-5
0.157, -2.387e-5
0.156, -2.408e-5
0.155, -2.424e-5
0.154, -2.424e-5
0.153, -2.424e-5
0.152, -2.425e-5
0.151, -2.420e-5
0.150, -4.720e-6
0.151, 5.943e-6
0.152, 8.069e-6
0.153, 9.778e-6
0.154, 1.082e-5
0.155, 1.168e-5
0.156, 1.252e-5
0.157, 1.309e-5
0.158, 1.355e-5
0.159, 1.437e-5
0.160, 1.471e-5
0.161, 1.514e-5
0.162, 1.554e-5
0.163, 1.599e-5
0.164, 1.622e-5
0.165, 1.667e-5
0.166, 1.657e-5
0.167, 1.722e-5
0.168, 1.729e-5
0.169, 1.773e-5
0.170, 1.803e-5
0.171, 1.821e-5
0.172, 1.852e-5
0.173, 1.870e-5
0.174, 1.888e-5
0.175, 1.929e-5
0.176, 1.924e-5
0.177, 1.961e-5
0.178, 1.972e-5
0.179, 2.023e-5
0.180, 2.010e-5
0.181, 2.050e-5
0.182, 2.039e-5
0.183, 2.084e-5
0.184, 2.083e-5
0.185, 2.119e-5
0.186, 2.134e-5
0.187, 2.168e-5
0.188, 2.160e-5
0.189, 2.190e-5
0.190, 2.188e-5
0.191, 2.243e-5
0.192, 2.212e-5
0.193, 2.258e-5
0.194, 2.286e-5
0.195, 2.302e-5
0.196, 2.306e-5
0.197, 2.346e-5
0.198, 2.348e-5
0.199, 2.409e-5
0.200, 2.390e-5
0.201, 2.418e-5
0.202, 2.434e-5
0.203, 2.474e-5
0.204, 2.463e-5
0.205, 2.449e-5
0.206, 2.508e-5
0.207, 2.563e-5
0.208, 2.546e-5
0.209, 2.594e-5
0.210, 2.618e-5
0.211, 2.640e-5
0.212, 2.656e-5
0.213, 2.685e-5
0.214, 2.695e-5
0.215, 2.728e-5
0.216, 2.745e-5
0.217, 2.777e-5
0.218, 2.796e-5
0.219, 2.840e-5
0.220, 2.875e-5
0.221, 2.889e-5
0.222, 2.920e-5
0.223, 2.971e-5
0.224, 2.970e-5
0.225, 3.006e-5
0.226, 3.035e-5
0.227, 3.072e-5
0.228, 3.108e-5
0.229, 3.132e-5
0.230, 3.170e-5
0.231, 3.226e-5
0.232, 3.216e-5
0.233, 3.272e-5
0.234, 3.293e-5
0.235, 3.339e-5
0.236, 3.378e-5
0.237, 3.425e-5
0.238, 3.432e-5
0.239, 3.513e-5
0.240, 3.524e-5
0.241, 3.585e-5
0.242, 3.595e-5
0.243, 3.620e-5
0.244, 3.696e-5
0.245, 3.725e-5
0.246, 3.757e-5
0.247, 3.848e-5
0.248, 3.833e-5
0.249, 3.925e-5
0.250, 1.020e-5
0.249, -8.376e-6
0.248, -1.287e-5
0.247, -1.535e-5
0.246, -1.747e-5
0.245, -1.876e-5
0.244, -2.000e-5
0.243, -2.083e-5
0.242, -2.172e-5
0.241, -2.225e-5
0.240, -2.279e-5
0.239, -2.301e-5
0.238, -2.389e-5
0.237, -2.380e-5
0.236, -2.420e-5
0.235, -2.430e-5
0.234, -2.450e-5
0.233, -2.467e-5
0.232, -2.487e-5
0.231, -2.504e-5
0.230, -2.507e-5
0.229, -2.495e-5
0.228, -2.519e-5
0.227, -2.499e-5
0.226, -2.514e-5
0.225, -2.501e-5
0.224, -2.507e-5
0.223, -2.507e-5
0.222, -2.514e-5
0.221, -2.488e-5
0.220, -2.526e-5
0.219, -2.481e-5
0.218, -2.482e-5
0.217, -2.497e-5
0.216, -2.475e-5
0.215, -2.468e-5
0.214, -2.481e-5
0.213, -2.462e-5
0.212, -2.472e-5
0.211, -2.450e-5
0.210, -2.460e-5
0.209, -2.456e-5
0.208, -2.430e-5
0.207, -2.417e-5
0.206, -2.447e-5
0.205, -2.374e-5
0.204, -2.436e-5
0.203, -2.404e-5
0.202, -2.409e-5
0.201, -2.406e-5
0.200, -2.406e-5
0.199, -2.404e-5
0.198, -2.406e-5
0.197, -2.385e-5
0.196, -2.399e-5
0.195, -2.380e-5
0.194, -2.384e-5
0.193, -2.377e-5
0.192, -2.359e-5
0.191, -2.371e-5
0.190, -2.379e-5
0.189, -2.354e-5
0.188, -2.375e-5
0.187, -2.344e-5
0.186, -2.371e-5
0.185, -2.358e-5
0.184, -2.360e-5
0.183, -2.348e-5
0.182, -2.365e-5
0.181, -2.350e-5
0.180, -2.360e-5
0.179, -2.371e-5
0.178, -2.358e-5
0.177, -2.358e-5
0.176, -2.352e-5
0.175, -2.345e-5
0.174, -2.369e-5
0.173, -2.356e-5
0.172, -2.365e-5
0.171, -2.370e-5
0.170, -2.363e-5
0.169, -2.359e-5
0.168, -2.361e-5
0.167, -2.348e-5
0.166, -2.377e-5
0.165, -2.363e-5
0.164, -2.384e-5
0.163, -2.365e-5
0.162, -2.393e-5
0.161, -2.391e-5
0.160, -2.388e-5
0.159, -2.400e-5
0.158, -2.408e-5
0.157, -2.385e-5
0.156, -2.422e-5
0.155, -2.406e-5
0.154, -2.433e-5
0.153, -2.440e-5
0.152, -2.420e-5
0.151, -2.420e-5
0.150, -4.769e-6
0.151, 6.076e-6
0.152, 7.958e-6
0.153, 9.880e-6
0.154, 1.074e-5
0.155, 1.170e-5
0.156, 1.243e-5
0.157, 1.313e-5
0.158, 1.355e-5
0.159, 1.439e-5
0.160, 1.467e-5
0.161, 1.521e-5
0.162, 1.540e-5
0.163, 1.596e-5
0.164, 1.629e-5
0.165, 1.663e-5
0.166, 1.663e-5
0.167, 1.732e-5
0.168, 1.723e-5
0.169, 1.789e-5
0.170, 1.788e-5
0.171, 1.831e-5
0.172, 1.845e-5
0.173, 1.873e-5
0.174, 1.887e-5
0.175, 1.924e-5
0.176, 1.923e-5
0.177, 1.961e-5
0.178, 1.968e-5
0.179, 2.017e-5
0.180, 2.026e-5
0.181, 2.034e-5
0.182, 2.047e-5
0.183, 2.082e-5
0.184, 2.082e-5
0.185, 2.122e-5
0.186, 2.128e-5
0.187, 2.155e-5
0.188, 2.168e-5
0.189, 2.194e-5
0.190, 2.193e-5
0.191, 2.237e-5
0.192, 2.211e-5
0.193, 2.272e-5
0.194, 2.268e-5
0.195, 2.291e-5
0.196, 2.323e-5
0.197, 2.341e-5
0.198, 2.341e-5
0.199, 2.401e-5
0.200, 2.383e-5
0.201, 2.428e-5
0.202, 2.425e-5
0.203, 2.464e-5
0.204, 2.469e-5
0.205, 2.449e-5
0.206, 2.498e-5
0.207, 2.550e-5
0.208, 2.557e-5
0.209, 2.577e-5
0.210, 2.606e-5
0.211, 2.636e-5
0.212, 2.658e-5
0.213, 2.680e-5
0.214, 2.685e-5
0.215, 2.749e-5
0.216, 2.743e-5
0.217, 2.775e-5
0.218, 2.792e-5
0.219, 2.838e-5
0.220, 2.864e-5
0.221, 2.883e-5
0.222, 2.919e-5
0.223, 2.964e-5
0.224, 2.961e-5
0.225, 3.009e-5
0.226, 3.038e-5
0.227, 3.067e-5
0.228, 3.101e-5
0.229, 3.128e-5
0.230, 3.165e-5
0.231, 3.224e-5
0.232, 3.212e-5
0.233, 3.288e-5
0.234, 3.290e-5
0.235, 3.349e-5
0.236, 3.363e-5
0.237, 3.415e-5
0.238, 3.447e-5
0.239, 3.507e-5
0.240, 3.511e-5
0.241, 3.575e-5
0.242, 3.610e-5
0.243, 3.624e-5
0.244, 3.686e-5
0.245, 3.725e-5
0.246, 3.759e-5
0.247, 3.832e-5
0.248, 3.832e-5
0.249, 3.939e-5
0.250, 1.001e-5
0.249, -8.311e-6
0.248, -1.278e-5
0.247, -1.544e-5
0.246, -1.759e-5
0.245, -1.886e-5
0.244, -2.005e-5
0.243, -2.068e-5
0.242, -2.184e-5
0.241, -2.225e-5
0.240, -2.281e-5
0.239, -2.328e-5
0.238, -2.384e-5
0.237, -2.383e-5
0.236, -2.424e-5
0.235, -2.425e-5
0.234, -2.453e-5
0.233, -2.462e-5
0.232, -2.492e-5
0.231, -2.488e-5
0.230, -2.514e-5
0.229, -2.481e-5
0.228, -2.517e-5
0.227, -2.497e-5
0.226, -2.525e-5
0.225, -2.515e-5
0.224, -2.504e-5
0.223, -2.510e-5
0.222, -2.523e-5
0.221, -2.486e-5
0.220, -2.516e-5
0.219, -2.490e-5
0.218, -2.480e-5
0.217, -2.488e-5
0.216, -2.480e-5
0.215, -2.463e-5
0.214, -2.479e-5
0.213, -2.463e-5
0.212, -2.471e-5
0.211, -2.450e-5
0.210, -2.461e-5
0.209, -2.448e-5
0.208, -2.446e-5
0.207, -2.444e-5
0.206, -2.446e-5
0.205, -2.366e-5
0.204, -2.423e-5
0.203, -2.403e-5
0.202, -2.415e-5
0.201, -2.413e-5
0.200, -2.405e-5
0.199, -2.401e-5
0.198, -2.411e-5
0.197, -2.383e-5
0.196, -2.397e-5
0.195, -2.376e-5
0.194, -2.386e-5
0.193, -2.374e-5
0.192, -2.364e-5
0.191, -2.370e-5
0.190, -2.387e-5
0.189, -2.347e-5
0.188, -2.376e-5
0.187, -2.352e-5
0.186, -2.379e-5
0.185, -2.356e-5
0.184, -2.345e-5
0.183, -2.347e-5
0.182, -2.380e-5
0.181, -2.338e-5
0.180, -2.375e-5
0.179, -2.350e-5
0.178, -2.368e-5
0.177, -2.356e-5
0.176, -2.359e-5
0.175, -2.353e-5
0.174, -2.369e-5
0.173, -2.358e-5
0.172, -2.362e-5
0.171, -2.359e-5
0.170, -2.363e-5
0.169, -2.371e-5
0.168, -2.364e-5
0.167, -2.347e-5
0.166, -2.385e-5
0.165, -2.356e-5
0.164, -2.383e-5
0.163, -2.368e-5
0.162, -2.395e-5
0.161, -2.389e-5
0.160, -2.393e-5
0.159, -2.378e-5
0.158, -2.423e-5
0.157, -2.389e-5
0.156, -2.427e-5
0.155, -2.400e-5
0.154, -2.437e-5
0.153, -2.425e-5
0.152, -2.437e-5
0.151, -2.433e-5
0.150, -4.775e-6
0.151, 6.014e-6
0.152, 8.083e-6
0.153, 9.713e-6
0.154, 1.075e-5
0.155, 1.180e-5
0.156, 1.243e-5
0.157, 1.308e-5
0.158, 1.342e-5
0.159, 1.448e-5
0.160, 1.462e-5
0.161, 1.513e-5
0.162, 1.548e-5
0.163, 1.589e-5
0.164, 1.621e-5
0.165, 1.668e-5
0.166, 1.656e-5
0.167, 1.738e-5
0.168, 1.726e-5
0.169, 1.765e-5
0.170, 1.807e-5
0.171, 1.813e-5
0.172, 1.849e-5
0.173, 1.878e-5
0.174, 1.875e-5
0.175, 1.930e-5
0.176, 1.926e-5
0.177, 1.960e-5
0.178, 1.979e-5
0.179, 2.013e-5
0.180, 2.016e-5
0.181, 2.040e-5
0.182, 2.032e-5
0.183, 2.092e-5
0.184, 2.070e-5
0.185, 2.121e-5
0.186, 2.123e-5
0.187, 2.154e-5
0.188, 2.181e-5
0.189, 2.174e-5
0.190, 2.195e-5
0.191, 2.237e-5
0.192, 2.216e-5
0.193, 2.265e-5
0.194, 2.278e-5
0.195, 2.286e-5
0.196, 2.319e-5
0.197, 2.344e-5
0.198, 2.345e-5
0.199, 2.392e-5
0.200, 2.383e-5
0.201, 2.416e-5
0.202, 2.434e-5
0.203, 2.459e-5
0.204, 2.472e-5
0.205, 2.445e-5
0.206, 2.494e-5
0.207, 2.559e-5
0.208, 2.541e-5
0.209, 2.586e-5
0.210, 2.614e-5
0.211, 2.630e-5
0.212, 2.648e-5
0.213, 2.694e-5
0.214, 2.687e-5
0.215, 2.742e-5
0.216, 2.737e-5
0.217, 2.776e-5
0.218, 2.794e-5
0.219, 2.844e-5
0.220, 2.851e-5
0.221, 2.887e-5
0.222, 2.894e-5
0.223, 2.965e-5
0.224, 2.970e-5
0.225, 3.014e-5
0.226, 3.030e-5
0.227, 3.066e-5
0.228, 3.092e-5
0.229, 3.135e-5
0.230, 3.164e-5
0.231, 3.220e-5
0.232, 3.218e-5
0.233, 3.263e-5
0.234, 3.286e-5
0.235, 3.341e-5
0.236, 3.370e-5
0.237, 3.405e-5
0.238, 3.433e-5
0.239, 3.520e-5
0.240, 3.494e-5
0.241, 3.569e-5
0.242, 3.602e-5
0.243, 3.623e-5
0.244, 3.690e-5
0.245, 3.717e-5
0.246, 3.744e-5
0.247, 3.840e-5
0.248, 3.843e-5
0.249, 3.909e-5
0.250, 1.004e-5
0.249, -8.278e-6
0.248, -1.270e-5
0.247, -1.544e-5
0.246, -1.764e-5
0.245, -1.880e-5
0.244, -2.008e-5
0.243, -2.074e-5
0.242, -2.187e-5
0.241, -2.230e-5
0.240, -2.298e-5
0.239, -2.298e-5
0.238, -2.380e-5
0.237, -2.393e-5
0.236, -2.435e-5
0.235, -2.424e-5
0.234, -2.449e-5
0.233, -2.467e-5
0.232, -2.477e-5
0.231, -2.499e-5
0.230, -2.529e-5
0.229, -2.490e-5
0.228, -2.524e-5
0.227, -2.506e-5
0.226, -2.500e-5
0.225, -2.523e-5
0.224, -2.508e-5
0.223, -2.501e-5
0.222, -2.527e-5
0.221, -2.484e-5
0.220, -2.507e-5
0.219, -2.495e-5
0.218, -2.488e-5
0.217, -2.483e-5
0.216, -2.487e-5
0.215, -2.465e-5
0.214, -2.491e-5
0.213, -2.452e-5
0.212, -2.485e-5
0.211, -2.446e-5
0.210, -2.464e-5
0.209, -2.453e-5
0.208, -2.439e-5
0.207, -2.438e-5
0.206, -2.448e-5
0.205, -2.355e-5
0.204, -2.427e-5
0.203, -2.420e-5
0.202, -2.421e-5
0.201, -2.407e-5
0.200, -2.404e-5
0.199, -2.396e-5
0.198, -2.413e-5
0.197, -2.384e-5
0.196, -2.384e-5
0.195, -2.384e-5
0.194, -2.396e-5
0.193, -2.373e-5
0.192, -2.362e-5
0.191, -2.356e-5
0.190, -2.397e-5
0.189, -2.358e-5
0.188, -2.371e-5
0.187, -2.368e-5
0.186, -2.371e-5
0.185, -2.361e-5
0.184, -2.367e-5
0.183, -2.342e-5
0.182, -2.372e-5
0.181, -2.341e-5
0.180, -2.375e-5
0.179, -2.351e-5
0.178, -2.367e-5
0.177, -2.351e-5
0.176, -2.367e-5
0.175, -2.347e-5
0.174, -2.375e-5
0.173, -2.354e-5
0.172, -2.360e-5
0.171, -2.360e-5
0.170, -2.368e-5
0.169, -2.363e-5
0.168, -2.369e-5
0.167, -2.356e-5
0.166, -2.385e-5
0.165, -2.368e-5
0.164, -2.387e-5
0.163, -2.375e-5
0.162, -2.394e-5
0.161, -2.386e-5
0.160, -2.405e-5
0.159, -2.389e-5
0.158, -2.411e-5
0.157, -2.391e-5
0.156, -2.422e-5
0.155, -2.404e-5
0.154, -2.438e-5
0.153, -2.421e-5
0.152, -2.429e-5
0.151, -2.434e-5
0.150, -4.728e-6
0.151, 5.997e-6
0.152, 8.010e-6
0.153, 9.743e-6
0.154, 1.068e-5
0.155, 1.180e-5
0.156, 1.236e-5
0.157, 1.305e-5
0.158, 1.365e-5
0.159, 1.436e-5
0.160, 1.460e-5
0.161, 1.516e-5
0.162, 1.555e-5
0.163, 1.589e-5
0.164, 1.620e-5
0.165, 1.672e-5
0.166, 1.657e-5
0.167, 1.724e-5
0.168, 1.735e-5
0.169, 1.778e-5
0.170, 1.786e-5
0.171, 1.829e-5
0.172, 1.840e-5
0.173, 1.870e-5
0.174, 1.879e-5
0.175, 1.930e-5
0.176, 1.912e-5
0.177, 1.963e-5
0.178, 1.966e-5
0.179, 2.020e-5
0.180, 2.001e-5
0.181, 2.040e-5
0.182, 2.052e-5
0.183, 2.084e-5
0.184, 2.075e-5
0.185, 2.125e-5
0.186, 2.127e-5
0.187, 2.159e-5
0.188, 2.149e-5
0.189, 2.197e-5
0.190, 2.187e-5
0.191, 2.232e-5
0.192, 2.215e-5
0.193, 2.275e-5
0.194, 2.257e-5
0.195, 2.300e-5
0.196, 2.309e-5
0.197, 2.340e-5
0.198, 2.357e-5
0.199, 2.395e-5
0.200, 2.379e-5
0.201, 2.417e-5
0.202, 2.425e-5
0.203, 2.464e-5
0.204, 2.464e-5
0.205, 2.449e-5
0.206, 2.493e-5
0.207, 2.553e-5
0.208, 2.545e-5
0.209, 2.591e-5
0.210, 2.597e-5
0.211, 2.635e-5
0.212, 2.646e-5
0.213, 2.683e-5
0.214, 2.690e-5
0.215, 2.739e-5
0.216, 2.726e-5
0.217, 2.783e-5
0.218, 2.784e-5
0.219, 2.837e-5
0.220, 2.862e-5
0.221, 2.883e-5
0.222, 2.904e-5
0.223, 2.959e-5
0.224, 2.960e-5
0.225, 3.005e-5
0.226, 3.029e-5
0.227, 3.065e-5
0.228, 3.097e-5
0.229, 3.138e-5
0.230, 3.166e-5
0.231, 3.224e-5
0.232, 3.202e-5
0.233, 3.280e-5
0.234, 3.276e-5
0.235, 3.342e-5
0.236, 3.376e-5
0.237, 3.409e-5
0.238, 3.438e-5
0.239, 3.497e-5
0.240, 3.497e-5
0.241, 3.572e-5
0.242, 3.574e-5
0.243, 3.626e-5
0.244, 3.671e-5
0.245, 3.723e-5
0.246, 3.728e-5
0.247, 3.820e-5
0.248, 3.842e-5
0.249, 3.921e-5
0.250, 9.936e-6
0.249, -8.302e-6
0.248, -1.282e-5
0.247, -1.522e-5
0.246, -1.769e-5
0.245, -1.876e-5
0.244, -2.013e-5
0.243, -2.073e-5
0.242, -2.183e-5
0.241, -2.234e-5
0.240, -2.279e-5
0.239, -2.327e-5
0.238, -2.365e-5
0.237, -2.394e-5
0.236, -2.437e-5
0.235, -2.424e-5
0.234, -2.456e-5
0.233, -2.467e-5
0.232, -2.489e-5
0.231, -2.491e-5
0.230, -2.518e-5
0.229, -2.498e-5
0.228, -2.524e-5
0.227, -2.496e-5
0.226, -2.516e-5
0.225, -2.523e-5
0.224, -2.507e-5
0.223, -2.500e-5
0.222, -2.521e-5
0.221, -2.487e-5
0.220, -2.511e-5
0.219, -2.483e-5
0.218, -2.497e-5
0.217, -2.486e-5
0.216, -2.479e-5
0.215, -2.481e-5
0.214, -2.494e-5
0.213, -2.457e-5
0.212, -2.474e-5
0.211, -2.449e-5
0.210, -2.466e-5
0.209, -2.449e-5
0.208, -2.437e-5
0.207, -2.428e-5
0.206, -2.455e-5
0.205, -2.362e-5
0.204, -2.429e-5
0.203, -2.414e-5
0.202, -2.416e-5
0.201, -2.418e-5
0.200, -2.394e-5
0.199, -2.399e-5
0.198, -2.418e-5
0.197, -2.374e-5
0.196, -2.399e-5
0.195, -2.389e-5
0.194, -2.396e-5
0.193, -2.374e-5
0.192, -2.358e-5
0.191, -2.364e-5
0.190, -2.389e-5
0.189, -2.360e-5
0.188, -2.363e-5
0.187, -2.362e-5
0.186, -2.372e-5
0.185, -2.357e-5
0.184, -2.356e-5
0.183, -2.350e-5
0.182, -2.374e-5
0.181, -2.352e-5
0.180, -2.383e-5
0.179, -2.355e-5
0.178, -2.365e-5
0.177, -2.363e-5
0.176, -2.340e-5
0.175, -2.353e-5
0.174, -2.369e-5
0.173, -2.349e-5
0.172, -2.369e-5
0.171, -2.363e-5
0.170, -2.369e-5
0.169, -2.366e-5
0.168, -2.378e-5
0.167, -2.329e-5
0.166, -2.390e-5
0.165, -2.364e-5
0.164, -2.389e-5
0.163, -2.371e-5
0.162, -2.395e-5
0.161, -2.389e-5
0.160, -2.403e-5
0.159, -2.394e-5
0.158, -2.423e-5
0.157, -2.398e-5
0.156, -2.422e-5
0.155, -2.405e-5
0.154, -2.437e-5
0.153, -2.436e-5
0.152, -2.417e-5
0.151, -2.421e-5
0.150, -4.870e-6
0.151, 6.049e-6
0.152, 7.961e-6
0.153, 9.678e-6
0.154, 1.073e-5
0.155, 1.172e-5
0.156, 1.242e-5
0.157, 1.310e-5
0.158, 1.358e-5
0.159, 1.438e-5
0.160, 1.452e-5
0.161, 1.510e-5
0.162, 1.550e-5
0.163, 1.600e-5
0.164, 1.610e-5
0.165, 1.662e-5
0.166, 1.656e-5
0.167, 1.742e-5
0.168, 1.723e-5
0.169, 1.768e-5
0.170, 1.792e-5
0.171, 1.827e-5
0.172, 1.837e-5
0.173, 1.886e-5
0.174, 1.872e-5
0.175, 1.934e-5
0.176, 1.921e-5
0.177, 1.951e-5
0.178, 1.977e-5
0.179, 2.018e-5
0.180, 2.008e-5
0.181, 2.044e-5
0.182, 2.025e-5
0.183, 2.097e-5
0.184, 2.075e-5
0.185, 2.112e-5
0.186, 2.136e-5
0.187, 2.149e-5
0.188, 2.174e-5
0.189, 2.186e-5
0.190, 2.175e-5
0.191, 2.246e-5
0.192, 2.195e-5
0.193, 2.261e-5
0.194, 2.275e-5
0.195, 2.300e-5
0.196, 2.316e-5
0.197, 2.329e-5
0.198, 2.350e-5
0.199, 2.390e-5
0.200, 2.384e-5
0.201, 2.411e-5
0.202, 2.434e-5
0.203, 2.468e-5
0.204, 2.462e-5
0.205, 2.436e-5
0.206, 2.488e-5
0.207, 2.555e-5
0.208, 2.542e-5
0.209, 2.585e-5
0.210, 2.608e-5
0.211, 2.630e-5
0.212, 2.644e-5
0.213, 2.684e-5
0.214, 2.676e-5
0.215, 2.758e-5
0.216, 2.731e-5
0.217, 2.756e-5
0.218, 2.800e-5
0.219, 2.834e-5
0.220, 2.850e-5
0.221, 2.880e-5
0.222, 2.897e-5
0.223, 2.967e-5
0.224, 2.949e-5
0.225, 2.996e-5
0.226, 3.031e-5
0.227, 3.072e-5
0.228, 3.092e-5
0.229, 3.141e-5
0.230, 3.167e-5
0.231, 3.211e-5
0.232, 3.201e-5
0.233, 3.252e-5
0.234, 3.296e-5
0.235, 3.336e-5
0.236, 3.375e-5
0.237, 3.404e-5
0.238, 3.412e-5
0.239, 3.519e-5
0.240, 3.493e-5
0.241, 3.568e-5
0.242, 3.595e-5
0.243, 3.630e-5
0.244, 3.657e-5
0.245, 3.717e-5
0.246, 3.737e-5
0.247, 3.839e-5
0.248, 3.832e-5
0.249, 3.901e-5
0.250, 1.011e-5
0.249, -8.340e-6
0.248, -1.293e-5
0.247, -1.536e-5
0.246, -1.770e-5
0.245, -1.882e-5
0.244, -2.006e-5
0.243, -2.081e-5
0.242, -2.160e-5
0.241, -2.237e-5
0.240, -2.285e-5
0.239, -2.308e-5
0.238, -2.382e-5
0.237, -2.381e-5
0.236, -2.430e-5
0.235, -2.429e-5
0.234, -2.449e-5
0.233, -2.486e-5
0.232, -2.485e-5
0.231, -2.501e-5
0.230, -2.523e-5
0.229, -2.480e-5
0.228, -2.519e-5
0.227, -2.505e-5
0.226, -2.514e-5
0.225, -2.514e-5
0.224, -2.520e-5
0.223, -2.508e-5
0.222, -2.522e-5
0.221, -2.482e-5
0.220, -2.499e-5
0.219, -2.500e-5
0.218, -2.486e-5
0.217, -2.487e-5
0.216, -2.484e-5
0.215, -2.479e-5
0.214, -2.488e-5
0.213, -2.464e-5
0.212, -2.467e-5
0.211, -2.468e-5
0.210, -2.452e-5
0.209, -2.452e-5
0.208, -2.454e-5
0.207, -2.435e-5
0.206, -2.449e-5
0.205, -2.351e-5
0.204, -2.434e-5
0.203, -2.407e-5
0.202, -2.416e-5
0.201, -2.411e-5
0.200, -2.397e-5
0.199, -2.402e-5
0.198, -2.419e-5
0.197, -2.367e-5
0.196, -2.414e-5
0.195, -2.369e-5
0.194, -2.392e-5
0.193, -2.381e-5
0.192, -2.354e-5
0.191, -2.374e-5
0.190, -2.390e-5
0.189, -2.346e-5
0.188, -2.379e-5
0.187, -2.367e-5
0.186, -2.357e-5
0.185, -2.366e-5
0.184, -2.366e-5
0.183, -2.344e-5
0.182, -2.367e-5
0.181, -2.337e-5
0.180, -2.389e-5
0.179, -2.362e-5
0.178, -2.368e-5
0.177, -2.357e-5
0.176, -2.356e-5
0.175, -2.350e-5
0.174, -2.376e-5
0.173, -2.346e-5
0.172, -2.371e-5
0.171, -2.362e-5
0.170, -2.365e-5
0.169, -2.364e-5
0.168, -2.390e-5
0.167, -2.342e-5
0.166, -2.381e-5
0.165, -2.369e-5
0.164, -2.392e-5
0.163, -2.371e-5
0.162, -2.389e-5
0.161, -2.398e-5
0.160, -2.400e-5
0.159, -2.398e-5
0.158, -2.420e-5
0.157, -2.385e-5
0.156, -2.428e-5
0.155, -2.415e-5
0.154, -2.444e-5
0.153, -2.431e-5
0.152, -2.436e-5
0.151, -2.424e-5
