Sept. 9, 2026   16:26:14
Open Circuit Potential - Time
File: ni_foil_ocv 30 min
Data Source:  Experiment
Instrument Model:  CHI660D
Header: 
Note: 

Sample Interval (V) = 1
Run Time (sec) = 1.8e+3

Time/sec, Potential/V

1.000e+0, -3.079e-1
2.000e+0, -3.079e-1
3.000e+0, -3.079e-1
4.000e+0, -3.079e-1
5.000e+0, -3.079e-1
6.000e+0, -3.078e-1
7.000e+0, -3.078e-1
8.000e+0, -3.078e-1
9.000e+0, -3.077e-1
1.000e+1, -3.077e-1
1.100e+1, -3.076e-1
1.200e+1, -3.076e-1
1.300e+1, -3.076e-1
1.400e+1, -3.075e-1
1.500e+1, -3.075e-1
1.600e+1, -3.074e-1
1.700e+1, -3.074e-1
1.800e+1, -3.074e-1
1.900e+1, -3.073e-1
2.000e+1, -3.073e-1
2.100e+1, -3.073e-1
2.200e+1, -3.072e-1
2.300e+1, -3.072e-1
2.400e+1, -3.071e-1
2.500e+1, -3.071e-1
2.600e+1, -3.071e-1
2.700e+1, -3.070e-1
2.800e+1, -3.070e-1
2.900e+1, -3.069e-1
3.000e+1, -3.069e-1
3.100e+1, -3.069e-1
3.200e+1, -3.068e-1
3.300e+1, -3.068e-1
3.400e+1, -3.068e-1
3.500e+1, -3.067e-1
3.600e+1, -3.067e-1
3.700e+1, -3.067e-1
3.800e+1, -3.066e-1
3.900e+1, -3.066e-1
4.000e+1, -3.065e-1
4.100e+1, -3.065e-1
4.200e+1, -3.064e-1
4.300e+1, -3.064e-1
4.400e+1, -3.012e-1
4.500e+1, -3.063e-1
4.600e+1, -3.063e-1
4.700e+1, -3.062e-1
4.800e+1, -3.062e-1
4.900e+1, -3.062e-1
5.000e+1, -3.061e-1
5.100e+1, -3.061e-1
5.200e+1, -3.060e-1
5.300e+1, -3.060e-1
5.400e+1, -3.060e-1
5.500e+1, -3.059e-1
5.600e+1, -3.059e-1
5.700e+1, -3.059e-1
5.800e+1, -3.058e-1
5.900e+1, -3.058e-1
6.000e+1, -3.058e-1
6.100e+1, -3.057e-1
6.200e+1, -3.057e-1
6.300e+1, -3.057e-1
6.400e+1, -3.056e-1
6.500e+1, -3.056e-1
6.600e+1, -3.056e-1
6.700e+1, -3.055e-1
6.800e+1, -3.055e-1
6.900e+1, -3.055e-1
7.000e+1, -3.055e-1
7.100e+1, -3.055e-1
7.200e+1, -3.055e-1
7.300e+1, -3.055e-1
7.400e+1, -3.054e-1
7.500e+1, -3.054e-1
7.600e+1, -3.055e-1
7.700e+1, -3.055e-1
7.800e+1, -3.054e-1
7.900e+1, -3.055e-1
8.000e+1, -3.056e-1
8.100e+1, -3.056e-1
8.200e+1, -3.056e-1
8.300e+1, -3.056e-1
8.400e+1, -3.056e-1
8.500e+1, -3.056e-1
8.600e+1, -3.055e-1
8.700e+1, -3.055e-1
8.800e+1, -3.055e-1
8.900e+1, -3.055e-1
9.000e+1, -3.054e-1
9.100e+1, -3.054e-1
9.200e+1, -3.054e-1
9.300e+1, -3.054e-1
9.400e+1, -3.053e-1
9.500e+1, -3.053e-1
9.600e+1, -3.053e-1
9.700e+1, -3.052e-1
9.800e+1, -3.052e-1
9.900e+1, -3.052e-1
1.000e+2, -3.051e-1
1.010e+2, -3.051e-1
1.020e+2, -3.051e-1
1.030e+2, -3.050e-1
1.040e+2, -3.050e-1
1.050e+2, -3.050e-1
1.060e+2, -3.049e-1
1.070e+2, -3.049e-1
1.080e+2, -3.049e-1
1.090e+2, -3.048e-1
1.100e+2, -3.048e-1
1.110e+2, -3.047e-1
1.120e+2, -3.047e-1
1.130e+2, -3.047e-1
1.140e+2, -3.047e-1
1.150e+2, -3.046e-1
1.160e+2, -3.046e-1
1.170e+2, -3.045e-1
1.180e+2, -3.045e-1
1.190e+2, -3.045e-1
1.200e+2, -3.044e-1
1.210e+2, -3.044e-1
1.220e+2, -3.044e-1
1.230e+2, -3.043e-1
1.240e+2, -3.043e-1
1.250e+2, -3.043e-1
1.260e+2, -3.042e-1
1.270e+2, -3.042e-1
1.280e+2, -3.041e-1
1.290e+2, -3.041e-1
1.300e+2, -3.041e-1
1.310e+2, -3.040e-1
1.320e+2, -3.040e-1
1.330e+2, -3.040e-1
1.340e+2, -3.039e-1
1.350e+2, -3.039e-1
1.360e+2, -3.038e-1
1.370e+2, -3.038e-1
1.380e+2, -3.037e-1
1.390e+2, -3.037e-1
1.400e+2, -3.037e-1
1.410e+2, -3.036e-1
1.420e+2, -3.036e-1
1.430e+2, -3.035e-1
1.440e+2, -3.035e-1
1.450e+2, -3.034e-1
1.460e+2, -3.034e-1
1.470e+2, -3.034e-1
1.480e+2, -3.033e-1
1.490e+2, -3.033e-1
1.500e+2, -3.032e-1
1.510e+2, -3.032e-1
1.520e+2, -3.032e-1
1.530e+2, -3.031e-1
1.540e+2, -3.031e-1
1.550e+2, -3.030e-1
1.560e+2, -3.030e-1
1.570e+2, -3.030e-1
1.580e+2, -3.029e-1
1.590e+2, -3.029e-1
1.600e+2, -3.028e-1
1.610e+2, -3.028e-1
1.620e+2, -3.028e-1
1.630e+2, -3.027e-1
1.640e+2, -3.027e-1
1.650e+2, -3.026e-1
1.660e+2, -3.026e-1
1.670e+2, -3.026e-1
1.680e+2, -3.025e-1
1.690e+2, -3.025e-1
1.700e+2, -3.024e-1
1.710e+2, -3.024e-1
1.720e+2, -3.023e-1
1.730e+2, -3.023e-1
1.740e+2, -3.023e-1
1.750e+2, -3.022e-1
1.760e+2, -3.022e-1
1.770e+2, -3.022e-1
1.780e+2, -3.021e-1
1.790e+2, -3.021e-1
1.800e+2, -3.020e-1
1.810e+2, -3.020e-1
1.820e+2, -3.020e-1
1.830e+2, -3.019e-1
1.840e+2, -3.019e-1
1.850e+2, -3.018e-1
1.860e+2, -3.018e-1
1.870e+2, -3.017e-1
1.880e+2, -3.017e-1
1.890e+2, -3.016e-1
1.900e+2, -3.016e-1
1.910e+2, -3.016e-1
1.920e+2, -3.015e-1
1.930e+2, -3.015e-1
1.940e+2, -3.014e-1
1.950e+2, -3.014e-1
1.960e+2, -3.013e-1
1.970e+2, -3.013e-1
1.980e+2, -3.012e-1
1.990e+2, -3.011e-1
2.000e+2, -3.011e-1
2.010e+2, -3.010e-1
2.020e+2, -3.010e-1
2.030e+2, -3.009e-1
2.040e+2, -3.009e-1
2.050e+2, -3.009e-1
2.060e+2, -3.008e-1
2.070e+2, -3.008e-1
2.080e+2, -3.007e-1
2.090e+2, -3.007e-1
2.100e+2, -3.007e-1
2.110e+2, -3.006e-1
2.120e+2, -3.006e-1
2.130e+2, -3.006e-1
2.140e+2, -3.005e-1
2.150e+2, -3.005e-1
2.160e+2, -3.004e-1
2.170e+2, -3.004e-1
2.180e+2, -3.004e-1
2.190e+2, -3.003e-1
2.200e+2, -3.003e-1
2.210e+2, -3.002e-1
2.220e+2, -3.002e-1
2.230e+2, -3.001e-1
2.240e+2, -3.001e-1
2.250e+2, -3.000e-1
2.260e+2, -3.000e-1
2.270e+2, -3.000e-1
2.280e+2, -2.999e-1
2.290e+2, -2.999e-1
2.300e+2, -2.998e-1
2.310e+2, -2.998e-1
2.320e+2, -2.997e-1
2.330e+2, -2.997e-1
2.340e+2, -2.997e-1
2.350e+2, -2.996e-1
2.360e+2, -2.996e-1
2.370e+2, -2.995e-1
2.380e+2, -2.995e-1
2.390e+2, -2.994e-1
2.400e+2, -2.994e-1
2.410e+2, -2.993e-1
2.420e+2, -2.993e-1
2.430e+2, -2.992e-1
2.440e+2, -2.992e-1
2.450e+2, -2.992e-1
2.460e+2, -2.991e-1
2.470e+2, -2.991e-1
2.480e+2, -2.990e-1
2.490e+2, -2.990e-1
2.500e+2, -2.989e-1
2.510e+2, -2.989e-1
2.520e+2, -2.988e-1
2.530e+2, -2.988e-1
2.540e+2, -2.988e-1
2.550e+2, -2.987e-1
2.560e+2, -2.987e-1
2.570e+2, -2.986e-1
2.580e+2, -2.986e-1
2.590e+2, -2.985e-1
2.600e+2, -2.985e-1
2.610e+2, -2.984e-1
2.620e+2, -2.984e-1
2.630e+2, -2.983e-1
2.640e+2, -2.983e-1
2.650e+2, -2.982e-1
2.660e+2, -2.982e-1
2.670e+2, -2.982e-1
2.680e+2, -2.981e-1
2.690e+2, -2.981e-1
2.700e+2, -2.980e-1
2.710e+2, -2.980e-1
2.720e+2, -2.979e-1
2.730e+2, -2.979e-1
2.740e+2, -2.978e-1
2.750e+2, -2.978e-1
2.760e+2, -2.978e-1
2.770e+2, -2.977e-1
2.780e+2, -2.977e-1
2.790e+2, -2.976e-1
2.800e+2, -2.976e-1
2.810e+2, -2.975e-1
2.820e+2, -2.975e-1
2.830e+2, -2.974e-1
2.840e+2, -2.974e-1
2.850e+2, -2.974e-1
2.860e+2, -2.973e-1
2.870e+2, -2.973e-1
2.880e+2, -2.972e-1
2.890e+2, -2.972e-1
2.900e+2, -2.971e-1
2.910e+2, -2.971e-1
2.920e+2, -2.971e-1
2.930e+2, -2.970e-1
2.940e+2, -2.970e-1
2.950e+2, -2.969e-1
2.960e+2, -2.969e-1
2.970e+2, -2.968e-1
2.980e+2, -2.968e-1
2.990e+2, -2.968e-1
3.000e+2, -2.967e-1
3.010e+2, -2.967e-1
3.020e+2, -2.966e-1
3.030e+2, -2.966e-1
3.040e+2, -2.965e-1
3.050e+2, -2.965e-1
3.060e+2, -2.964e-1
3.070e+2, -2.964e-1
3.080e+2, -2.963e-1
3.090e+2, -2.962e-1
3.100e+2, -2.962e-1
3.110e+2, -2.961e-1
3.120e+2, -2.961e-1
3.130e+2, -2.961e-1
3.140e+2, -2.960e-1
3.150e+2, -2.960e-1
3.160e+2, -2.959e-1
3.170e+2, -2.959e-1
3.180e+2, -2.958e-1
3.190e+2, -2.958e-1
3.200e+2, -2.958e-1
3.210e+2, -2.957e-1
3.220e+2, -2.957e-1
3.230e+2, -2.956e-1
3.240e+2, -2.956e-1
3.250e+2, -2.955e-1
3.260e+2, -2.955e-1
3.270e+2, -2.954e-1
3.280e+2, -2.954e-1
3.290e+2, -2.954e-1
3.300e+2, -2.953e-1
3.310e+2, -2.953e-1
3.320e+2, -2.952e-1
3.330e+2, -2.952e-1
3.340e+2, -2.951e-1
3.350e+2, -2.950e-1
3.360e+2, -2.950e-1
3.370e+2, -2.949e-1
3.380e+2, -2.949e-1
3.390e+2, -2.948e-1
3.400e+2, -2.948e-1
3.410e+2, -2.948e-1
3.420e+2, -2.947e-1
3.430e+2, -2.947e-1
3.440e+2, -2.947e-1
3.450e+2, -2.946e-1
3.460e+2, -2.946e-1
3.470e+2, -2.945e-1
3.480e+2, -2.945e-1
3.490e+2, -2.944e-1
3.500e+2, -2.944e-1
3.510e+2, -2.944e-1
3.520e+2, -2.943e-1
3.530e+2, -2.943e-1
3.540e+2, -2.942e-1
3.550e+2, -2.942e-1
3.560e+2, -2.941e-1
3.570e+2, -2.941e-1
3.580e+2, -2.940e-1
3.590e+2, -2.940e-1
3.600e+2, -2.939e-1
3.610e+2, -2.939e-1
3.620e+2, -2.939e-1
3.630e+2, -2.938e-1
3.640e+2, -2.938e-1
3.650e+2, -2.937e-1
3.660e+2, -2.937e-1
3.670e+2, -2.936e-1
3.680e+2, -2.936e-1
3.690e+2, -2.935e-1
3.700e+2, -2.935e-1
3.710e+2, -2.935e-1
3.720e+2, -2.934e-1
3.730e+2, -2.934e-1
3.740e+2, -2.933e-1
3.750e+2, -2.933e-1
3.760e+2, -2.932e-1
3.770e+2, -2.932e-1
3.780e+2, -2.932e-1
3.790e+2, -2.931e-1
3.800e+2, -2.931e-1
3.810e+2, -2.930e-1
3.820e+2, -2.930e-1
3.830e+2, -2.929e-1
3.840e+2, -2.929e-1
3.850e+2, -2.928e-1
3.860e+2, -2.928e-1
3.870e+2, -2.927e-1
3.880e+2, -2.927e-1
3.890e+2, -2.927e-1
3.900e+2, -2.926e-1
3.910e+2, -2.926e-1
3.920e+2, -2.925e-1
3.930e+2, -2.925e-1
3.940e+2, -2.924e-1
3.950e+2, -2.924e-1
3.960e+2, -2.923e-1
3.970e+2, -2.923e-1
3.980e+2, -2.922e-1
3.990e+2, -2.922e-1
4.000e+2, -2.921e-1
4.010e+2, -2.921e-1
4.020e+2, -2.920e-1
4.030e+2, -2.920e-1
4.040e+2, -2.920e-1
4.050e+2, -2.919e-1
4.060e+2, -2.918e-1
4.070e+2, -2.918e-1
4.080e+2, -2.917e-1
4.090e+2, -2.917e-1
4.100e+2, -2.916e-1
4.110e+2, -2.916e-1
4.120e+2, -2.916e-1
4.130e+2, -2.915e-1
4.140e+2, -2.915e-1
4.150e+2, -2.914e-1
4.160e+2, -2.914e-1
4.170e+2, -2.913e-1
4.180e+2, -2.913e-1
4.190e+2, -2.912e-1
4.200e+2, -2.912e-1
4.210e+2, -2.911e-1
4.220e+2, -2.911e-1
4.230e+2, -2.911e-1
4.240e+2, -2.910e-1
4.250e+2, -2.910e-1
4.260e+2, -2.909e-1
4.270e+2, -2.909e-1
4.280e+2, -2.908e-1
4.290e+2, -2.908e-1
4.300e+2, -2.908e-1
4.310e+2, -2.907e-1
4.320e+2, -2.907e-1
4.330e+2, -2.906e-1
4.340e+2, -2.906e-1
4.350e+2, -2.905e-1
4.360e+2, -2.905e-1
4.370e+2, -2.905e-1
4.380e+2, -2.904e-1
4.390e+2, -2.904e-1
4.400e+2, -2.903e-1
4.410e+2, -2.902e-1
4.420e+2, -2.902e-1
4.430e+2, -2.901e-1
4.440e+2, -2.901e-1
4.450e+2, -2.900e-1
4.460e+2, -2.900e-1
4.470e+2, -2.900e-1
4.480e+2, -2.899e-1
4.490e+2, -2.899e-1
4.500e+2, -2.898e-1
4.510e+2, -2.898e-1
4.520e+2, -2.898e-1
4.530e+2, -2.897e-1
4.540e+2, -2.897e-1
4.550e+2, -2.897e-1
4.560e+2, -2.896e-1
4.570e+2, -2.896e-1
4.580e+2, -2.895e-1
4.590e+2, -2.895e-1
4.600e+2, -2.894e-1
4.610e+2, -2.894e-1
4.620e+2, -2.894e-1
4.630e+2, -2.893e-1
4.640e+2, -2.893e-1
4.650e+2, -2.892e-1
4.660e+2, -2.891e-1
4.670e+2, -2.891e-1
4.680e+2, -2.890e-1
4.690e+2, -2.890e-1
4.700e+2, -2.889e-1
4.710e+2, -2.889e-1
4.720e+2, -2.888e-1
4.730e+2, -2.888e-1
4.740e+2, -2.887e-1
4.750e+2, -2.887e-1
4.760e+2, -2.887e-1
4.770e+2, -2.886e-1
4.780e+2, -2.886e-1
4.790e+2, -2.885e-1
4.800e+2, -2.885e-1
4.810e+2, -2.885e-1
4.820e+2, -2.884e-1
4.830e+2, -2.884e-1
4.840e+2, -2.884e-1
4.850e+2, -2.883e-1
4.860e+2, -2.883e-1
4.870e+2, -2.882e-1
4.880e+2, -2.882e-1
4.890e+2, -2.881e-1
4.900e+2, -2.881e-1
4.910e+2, -2.880e-1
4.920e+2, -2.880e-1
4.930e+2, -2.879e-1
4.940e+2, -2.879e-1
4.950e+2, -2.878e-1
4.960e+2, -2.878e-1
4.970e+2, -2.878e-1
4.980e+2, -2.877e-1
4.990e+2, -2.877e-1
5.000e+2, -2.876e-1
5.010e+2, -2.876e-1
5.020e+2, -2.875e-1
5.030e+2, -2.875e-1
5.040e+2, -2.874e-1
5.050e+2, -2.874e-1
5.060e+2, -2.874e-1
5.070e+2, -2.873e-1
5.080e+2, -2.873e-1
5.090e+2, -2.872e-1
5.100e+2, -2.872e-1
5.110e+2, -2.871e-1
5.120e+2, -2.871e-1
5.130e+2, -2.871e-1
5.140e+2, -2.870e-1
5.150e+2, -2.870e-1
5.160e+2, -2.869e-1
5.170e+2, -2.869e-1
5.180e+2, -2.868e-1
5.190e+2, -2.868e-1
5.200e+2, -2.867e-1
5.210e+2, -2.867e-1
5.220e+2, -2.866e-1
5.230e+2, -2.866e-1
5.240e+2, -2.865e-1
5.250e+2, -2.865e-1
5.260e+2, -2.864e-1
5.270e+2, -2.864e-1
5.280e+2, -2.863e-1
5.290e+2, -2.863e-1
5.300e+2, -2.862e-1
5.310e+2, -2.862e-1
5.320e+2, -2.861e-1
5.330e+2, -2.861e-1
5.340e+2, -2.860e-1
5.350e+2, -2.860e-1
5.360e+2, -2.859e-1
5.370e+2, -2.859e-1
5.380e+2, -2.859e-1
5.390e+2, -2.858e-1
5.400e+2, -2.858e-1
5.410e+2, -2.858e-1
5.420e+2, -2.857e-1
5.430e+2, -2.857e-1
5.440e+2, -2.856e-1
5.450e+2, -2.856e-1
5.460e+2, -2.855e-1
5.470e+2, -2.855e-1
5.480e+2, -2.855e-1
5.490e+2, -2.854e-1
5.500e+2, -2.854e-1
5.510e+2, -2.853e-1
5.520e+2, -2.853e-1
5.530e+2, -2.852e-1
5.540e+2, -2.852e-1
5.550e+2, -2.852e-1
5.560e+2, -2.851e-1
5.570e+2, -2.851e-1
5.580e+2, -2.850e-1
5.590e+2, -2.850e-1
5.600e+2, -2.849e-1
5.610e+2, -2.849e-1
5.620e+2, -2.848e-1
5.630e+2, -2.848e-1
5.640e+2, -2.847e-1
5.650e+2, -2.847e-1
5.660e+2, -2.846e-1
5.670e+2, -2.846e-1
5.680e+2, -2.846e-1
5.690e+2, -2.845e-1
5.700e+2, -2.845e-1
5.710e+2, -2.844e-1
5.720e+2, -2.844e-1
5.730e+2, -2.843e-1
5.740e+2, -2.843e-1
5.750e+2, -2.843e-1
5.760e+2, -2.842e-1
5.770e+2, -2.842e-1
5.780e+2, -2.841e-1
5.790e+2, -2.841e-1
5.800e+2, -2.840e-1
5.810e+2, -2.840e-1
5.820e+2, -2.839e-1
5.830e+2, -2.839e-1
5.840e+2, -2.838e-1
5.850e+2, -2.838e-1
5.860e+2, -2.837e-1
5.870e+2, -2.837e-1
5.880e+2, -2.836e-1
5.890e+2, -2.836e-1
5.900e+2, -2.835e-1
5.910e+2, -2.835e-1
5.920e+2, -2.834e-1
5.930e+2, -2.834e-1
5.940e+2, -2.833e-1
5.950e+2, -2.833e-1
5.960e+2, -2.832e-1
5.970e+2, -2.831e-1
5.980e+2, -2.831e-1
5.990e+2, -2.831e-1
6.000e+2, -2.831e-1
6.010e+2, -2.831e-1
6.020e+2, -2.830e-1
6.030e+2, -2.830e-1
6.040e+2, -2.830e-1
6.050e+2, -2.829e-1
6.060e+2, -2.829e-1
6.070e+2, -2.828e-1
6.080e+2, -2.828e-1
6.090e+2, -2.827e-1
6.100e+2, -2.827e-1
6.110e+2, -2.827e-1
6.120e+2, -2.826e-1
6.130e+2, -2.826e-1
6.140e+2, -2.826e-1
6.150e+2, -2.825e-1
6.160e+2, -2.825e-1
6.170e+2, -2.825e-1
6.180e+2, -2.824e-1
6.190e+2, -2.824e-1
6.200e+2, -2.823e-1
6.210e+2, -2.823e-1
6.220e+2, -2.823e-1
6.230e+2, -2.822e-1
6.240e+2, -2.822e-1
6.250e+2, -2.821e-1
6.260e+2, -2.821e-1
6.270e+2, -2.820e-1
6.280e+2, -2.820e-1
6.290e+2, -2.820e-1
6.300e+2, -2.819e-1
6.310e+2, -2.819e-1
6.320e+2, -2.818e-1
6.330e+2, -2.818e-1
6.340e+2, -2.817e-1
6.350e+2, -2.817e-1
6.360e+2, -2.816e-1
6.370e+2, -2.816e-1
6.380e+2, -2.816e-1
6.390e+2, -2.815e-1
6.400e+2, -2.815e-1
6.410e+2, -2.814e-1
6.420e+2, -2.814e-1
6.430e+2, -2.814e-1
6.440e+2, -2.813e-1
6.450e+2, -2.813e-1
6.460e+2, -2.812e-1
6.470e+2, -2.812e-1
6.480e+2, -2.812e-1
6.490e+2, -2.811e-1
6.500e+2, -2.811e-1
6.510e+2, -2.810e-1
6.520e+2, -2.810e-1
6.530e+2, -2.809e-1
6.540e+2, -2.809e-1
6.550e+2, -2.809e-1
6.560e+2, -2.808e-1
6.570e+2, -2.808e-1
6.580e+2, -2.807e-1
6.590e+2, -2.807e-1
6.600e+2, -2.806e-1
6.610e+2, -2.806e-1
6.620e+2, -2.806e-1
6.630e+2, -2.805e-1
6.640e+2, -2.805e-1
6.650e+2, -2.804e-1
6.660e+2, -2.804e-1
6.670e+2, -2.803e-1
6.680e+2, -2.803e-1
6.690e+2, -2.803e-1
6.700e+2, -2.802e-1
6.710e+2, -2.802e-1
6.720e+2, -2.801e-1
6.730e+2, -2.801e-1
6.740e+2, -2.800e-1
6.750e+2, -2.800e-1
6.760e+2, -2.799e-1
6.770e+2, -2.799e-1
6.780e+2, -2.798e-1
6.790e+2, -2.798e-1
6.800e+2, -2.797e-1
6.810e+2, -2.797e-1
6.820e+2, -2.796e-1
6.830e+2, -2.796e-1
6.840e+2, -2.795e-1
6.850e+2, -2.795e-1
6.860e+2, -2.795e-1
6.870e+2, -2.794e-1
6.880e+2, -2.794e-1
6.890e+2, -2.793e-1
6.900e+2, -2.793e-1
6.910e+2, -2.792e-1
6.920e+2, -2.792e-1
6.930e+2, -2.792e-1
6.940e+2, -2.791e-1
6.950e+2, -2.791e-1
6.960e+2, -2.791e-1
6.970e+2, -2.790e-1
6.980e+2, -2.790e-1
6.990e+2, -2.790e-1
7.000e+2, -2.789e-1
7.010e+2, -2.789e-1
7.020e+2, -2.788e-1
7.030e+2, -2.788e-1
7.040e+2, -2.787e-1
7.050e+2, -2.787e-1
7.060e+2, -2.787e-1
7.070e+2, -2.786e-1
7.080e+2, -2.786e-1
7.090e+2, -2.785e-1
7.100e+2, -2.785e-1
7.110e+2, -2.785e-1
7.120e+2, -2.784e-1
7.130e+2, -2.784e-1
7.140e+2, -2.783e-1
7.150e+2, -2.783e-1
7.160e+2, -2.783e-1
7.170e+2, -2.782e-1
7.180e+2, -2.782e-1
7.190e+2, -2.781e-1
7.200e+2, -2.781e-1
7.210e+2, -2.780e-1
7.220e+2, -2.780e-1
7.230e+2, -2.779e-1
7.240e+2, -2.779e-1
7.250e+2, -2.779e-1
7.260e+2, -2.778e-1
7.270e+2, -2.778e-1
7.280e+2, -2.777e-1
7.290e+2, -2.777e-1
7.300e+2, -2.777e-1
7.310e+2, -2.776e-1
7.320e+2, -2.776e-1
7.330e+2, -2.775e-1
7.340e+2, -2.775e-1
7.350e+2, -2.775e-1
7.360e+2, -2.774e-1
7.370e+2, -2.774e-1
7.380e+2, -2.773e-1
7.390e+2, -2.773e-1
7.400e+2, -2.772e-1
7.410e+2, -2.772e-1
7.420e+2, -2.772e-1
7.430e+2, -2.771e-1
7.440e+2, -2.771e-1
7.450e+2, -2.770e-1
7.460e+2, -2.770e-1
7.470e+2, -2.769e-1
7.480e+2, -2.769e-1
7.490e+2, -2.768e-1
7.500e+2, -2.768e-1
7.510e+2, -2.768e-1
7.520e+2, -2.767e-1
7.530e+2, -2.767e-1
7.540e+2, -2.766e-1
7.550e+2, -2.766e-1
7.560e+2, -2.765e-1
7.570e+2, -2.765e-1
7.580e+2, -2.765e-1
7.590e+2, -2.764e-1
7.600e+2, -2.764e-1
7.610e+2, -2.763e-1
7.620e+2, -2.763e-1
7.630e+2, -2.763e-1
7.640e+2, -2.762e-1
7.650e+2, -2.762e-1
7.660e+2, -2.762e-1
7.670e+2, -2.761e-1
7.680e+2, -2.761e-1
7.690e+2, -2.761e-1
7.700e+2, -2.760e-1
7.710e+2, -2.760e-1
7.720e+2, -2.759e-1
7.730e+2, -2.759e-1
7.740e+2, -2.758e-1
7.750e+2, -2.758e-1
7.760e+2, -2.758e-1
7.770e+2, -2.757e-1
7.780e+2, -2.757e-1
7.790e+2, -2.756e-1
7.800e+2, -2.756e-1
7.810e+2, -2.755e-1
7.820e+2, -2.755e-1
7.830e+2, -2.754e-1
7.840e+2, -2.754e-1
7.850e+2, -2.753e-1
7.860e+2, -2.753e-1
7.870e+2, -2.753e-1
7.880e+2, -2.752e-1
7.890e+2, -2.752e-1
7.900e+2, -2.752e-1
7.910e+2, -2.751e-1
7.920e+2, -2.751e-1
7.930e+2, -2.750e-1
7.940e+2, -2.750e-1
7.950e+2, -2.750e-1
7.960e+2, -2.749e-1
7.970e+2, -2.749e-1
7.980e+2, -2.748e-1
7.990e+2, -2.748e-1
8.000e+2, -2.748e-1
8.010e+2, -2.747e-1
8.020e+2, -2.747e-1
8.030e+2, -2.746e-1
8.040e+2, -2.746e-1
8.050e+2, -2.745e-1
8.060e+2, -2.745e-1
8.070e+2, -2.744e-1
8.080e+2, -2.744e-1
8.090e+2, -2.743e-1
8.100e+2, -2.743e-1
8.110e+2, -2.742e-1
8.120e+2, -2.742e-1
8.130e+2, -2.741e-1
8.140e+2, -2.741e-1
8.150e+2, -2.741e-1
8.160e+2, -2.740e-1
8.170e+2, -2.740e-1
8.180e+2, -2.739e-1
8.190e+2, -2.739e-1
8.200e+2, -2.739e-1
8.210e+2, -2.738e-1
8.220e+2, -2.738e-1
8.230e+2, -2.738e-1
8.240e+2, -2.737e-1
8.250e+2, -2.737e-1
8.260e+2, -2.737e-1
8.270e+2, -2.736e-1
8.280e+2, -2.736e-1
8.290e+2, -2.736e-1
8.300e+2, -2.735e-1
8.310e+2, -2.735e-1
8.320e+2, -2.734e-1
8.330e+2, -2.734e-1
8.340e+2, -2.734e-1
8.350e+2, -2.733e-1
8.360e+2, -2.733e-1
8.370e+2, -2.733e-1
8.380e+2, -2.732e-1
8.390e+2, -2.732e-1
8.400e+2, -2.731e-1
8.410e+2, -2.731e-1
8.420e+2, -2.731e-1
8.430e+2, -2.730e-1
8.440e+2, -2.730e-1
8.450e+2, -2.729e-1
8.460e+2, -2.729e-1
8.470e+2, -2.728e-1
8.480e+2, -2.728e-1
8.490e+2, -2.728e-1
8.500e+2, -2.727e-1
8.510e+2, -2.727e-1
8.520e+2, -2.726e-1
8.530e+2, -2.726e-1
8.540e+2, -2.726e-1
8.550e+2, -2.725e-1
8.560e+2, -2.725e-1
8.570e+2, -2.724e-1
8.580e+2, -2.724e-1
8.590e+2, -2.724e-1
8.600e+2, -2.723e-1
8.610e+2, -2.723e-1
8.620e+2, -2.722e-1
8.630e+2, -2.722e-1
8.640e+2, -2.721e-1
8.650e+2, -2.721e-1
8.660e+2, -2.720e-1
8.670e+2, -2.720e-1
8.680e+2, -2.719e-1
8.690e+2, -2.719e-1
8.700e+2, -2.719e-1
8.710e+2, -2.718e-1
8.720e+2, -2.718e-1
8.730e+2, -2.718e-1
8.740e+2, -2.717e-1
8.750e+2, -2.717e-1
8.760e+2, -2.716e-1
8.770e+2, -2.716e-1
8.780e+2, -2.716e-1
8.790e+2, -2.715e-1
8.800e+2, -2.715e-1
8.810e+2, -2.714e-1
8.820e+2, -2.714e-1
8.830e+2, -2.714e-1
8.840e+2, -2.713e-1
8.850e+2, -2.713e-1
8.860e+2, -2.713e-1
8.870e+2, -2.712e-1
8.880e+2, -2.712e-1
8.890e+2, -2.712e-1
8.900e+2, -2.711e-1
8.910e+2, -2.711e-1
8.920e+2, -2.710e-1
8.930e+2, -2.710e-1
8.940e+2, -2.710e-1
8.950e+2, -2.709e-1
8.960e+2, -2.709e-1
8.970e+2, -2.708e-1
8.980e+2, -2.707e-1
8.990e+2, -2.707e-1
9.000e+2, -2.706e-1
9.010e+2, -2.706e-1
9.020e+2, -2.705e-1
9.030e+2, -2.705e-1
9.040e+2, -2.704e-1
9.050e+2, -2.704e-1
9.060e+2, -2.704e-1
9.070e+2, -2.704e-1
9.080e+2, -2.703e-1
9.090e+2, -2.703e-1
9.100e+2, -2.703e-1
9.110e+2, -2.702e-1
9.120e+2, -2.702e-1
9.130e+2, -2.701e-1
9.140e+2, -2.701e-1
9.150e+2, -2.701e-1
9.160e+2, -2.700e-1
9.170e+2, -2.700e-1
9.180e+2, -2.700e-1
9.190e+2, -2.699e-1
9.200e+2, -2.699e-1
9.210e+2, -2.698e-1
9.220e+2, -2.698e-1
9.230e+2, -2.698e-1
9.240e+2, -2.697e-1
9.250e+2, -2.697e-1
9.260e+2, -2.697e-1
9.270e+2, -2.696e-1
9.280e+2, -2.696e-1
9.290e+2, -2.696e-1
9.300e+2, -2.695e-1
9.310e+2, -2.695e-1
9.320e+2, -2.694e-1
9.330e+2, -2.694e-1
9.340e+2, -2.693e-1
9.350e+2, -2.693e-1
9.360e+2, -2.693e-1
9.370e+2, -2.692e-1
9.380e+2, -2.692e-1
9.390e+2, -2.692e-1
9.400e+2, -2.691e-1
9.410e+2, -2.691e-1
9.420e+2, -2.690e-1
9.430e+2, -2.690e-1
9.440e+2, -2.690e-1
9.450e+2, -2.689e-1
9.460e+2, -2.689e-1
9.470e+2, -2.689e-1
9.480e+2, -2.688e-1
9.490e+2, -2.688e-1
9.500e+2, -2.687e-1
9.510e+2, -2.687e-1
9.520e+2, -2.687e-1
9.530e+2, -2.687e-1
9.540e+2, -2.686e-1
9.550e+2, -2.686e-1
9.560e+2, -2.685e-1
9.570e+2, -2.685e-1
9.580e+2, -2.685e-1
9.590e+2, -2.684e-1
9.600e+2, -2.684e-1
9.610e+2, -2.683e-1
9.620e+2, -2.683e-1
9.630e+2, -2.682e-1
9.640e+2, -2.682e-1
9.650e+2, -2.682e-1
9.660e+2, -2.681e-1
9.670e+2, -2.681e-1
9.680e+2, -2.680e-1
9.690e+2, -2.680e-1
9.700e+2, -2.680e-1
9.710e+2, -2.679e-1
9.720e+2, -2.679e-1
9.730e+2, -2.679e-1
9.740e+2, -2.678e-1
9.750e+2, -2.678e-1
9.760e+2, -2.677e-1
9.770e+2, -2.677e-1
9.780e+2, -2.677e-1
9.790e+2, -2.676e-1
9.800e+2, -2.676e-1
9.810e+2, -2.676e-1
9.820e+2, -2.675e-1
9.830e+2, -2.675e-1
9.840e+2, -2.674e-1
9.850e+2, -2.674e-1
9.860e+2, -2.674e-1
9.870e+2, -2.673e-1
9.880e+2, -2.673e-1
9.890e+2, -2.672e-1
9.900e+2, -2.672e-1
9.910e+2, -2.672e-1
9.920e+2, -2.671e-1
9.930e+2, -2.671e-1
9.940e+2, -2.670e-1
9.950e+2, -2.670e-1
9.960e+2, -2.670e-1
9.970e+2, -2.669e-1
9.980e+2, -2.669e-1
9.990e+2, -2.668e-1
1.000e+3, -2.668e-1
1.001e+3, -2.668e-1
1.002e+3, -2.667e-1
1.003e+3, -2.667e-1
1.004e+3, -2.666e-1
1.005e+3, -2.666e-1
1.006e+3, -2.666e-1
1.007e+3, -2.665e-1
1.008e+3, -2.665e-1
1.009e+3, -2.665e-1
1.010e+3, -2.664e-1
1.011e+3, -2.664e-1
1.012e+3, -2.664e-1
1.013e+3, -2.663e-1
1.014e+3, -2.663e-1
1.015e+3, -2.663e-1
1.016e+3, -2.662e-1
1.017e+3, -2.662e-1
1.018e+3, -2.662e-1
1.019e+3, -2.661e-1
1.020e+3, -2.661e-1
1.021e+3, -2.661e-1
1.022e+3, -2.660e-1
1.023e+3, -2.660e-1
1.024e+3, -2.659e-1
1.025e+3, -2.659e-1
1.026e+3, -2.659e-1
1.027e+3, -2.658e-1
1.028e+3, -2.658e-1
1.029e+3, -2.658e-1
1.030e+3, -2.657e-1
1.031e+3, -2.657e-1
1.032e+3, -2.656e-1
1.033e+3, -2.656e-1
1.034e+3, -2.656e-1
1.035e+3, -2.655e-1
1.036e+3, -2.655e-1
1.037e+3, -2.655e-1
1.038e+3, -2.654e-1
1.039e+3, -2.654e-1
1.040e+3, -2.654e-1
1.041e+3, -2.653e-1
1.042e+3, -2.653e-1
1.043e+3, -2.653e-1
1.044e+3, -2.652e-1
1.045e+3, -2.652e-1
1.046e+3, -2.652e-1
1.047e+3, -2.651e-1
1.048e+3, -2.651e-1
1.049e+3, -2.650e-1
1.050e+3, -2.650e-1
1.051e+3, -2.650e-1
1.052e+3, -2.649e-1
1.053e+3, -2.649e-1
1.054e+3, -2.648e-1
1.055e+3, -2.648e-1
1.056e+3, -2.648e-1
1.057e+3, -2.647e-1
1.058e+3, -2.647e-1
1.059e+3, -2.646e-1
1.060e+3, -2.646e-1
1.061e+3, -2.646e-1
1.062e+3, -2.645e-1
1.063e+3, -2.645e-1
1.064e+3, -2.644e-1
1.065e+3, -2.644e-1
1.066e+3, -2.643e-1
1.067e+3, -2.643e-1
1.068e+3, -2.643e-1
1.069e+3, -2.642e-1
1.070e+3, -2.642e-1
1.071e+3, -2.641e-1
1.072e+3, -2.641e-1
1.073e+3, -2.640e-1
1.074e+3, -2.640e-1
1.075e+3, -2.640e-1
1.076e+3, -2.639e-1
1.077e+3, -2.639e-1
1.078e+3, -2.639e-1
1.079e+3, -2.638e-1
1.080e+3, -2.638e-1
1.081e+3, -2.638e-1
1.082e+3, -2.637e-1
1.083e+3, -2.637e-1
1.084e+3, -2.637e-1
1.085e+3, -2.636e-1
1.086e+3, -2.636e-1
1.087e+3, -2.636e-1
1.088e+3, -2.635e-1
1.089e+3, -2.635e-1
1.090e+3, -2.635e-1
1.091e+3, -2.634e-1
1.092e+3, -2.634e-1
1.093e+3, -2.634e-1
1.094e+3, -2.633e-1
1.095e+3, -2.633e-1
1.096e+3, -2.632e-1
1.097e+3, -2.632e-1
1.098e+3, -2.631e-1
1.099e+3, -2.631e-1
1.100e+3, -2.630e-1
1.101e+3, -2.630e-1
1.102e+3, -2.630e-1
1.103e+3, -2.629e-1
1.104e+3, -2.629e-1
1.105e+3, -2.629e-1
1.106e+3, -2.628e-1
1.107e+3, -2.627e-1
1.108e+3, -2.627e-1
1.109e+3, -2.627e-1
1.110e+3, -2.627e-1
1.111e+3, -2.627e-1
1.112e+3, -2.626e-1
1.113e+3, -2.626e-1
1.114e+3, -2.626e-1
1.115e+3, -2.626e-1
1.116e+3, -2.625e-1
1.117e+3, -2.625e-1
1.118e+3, -2.625e-1
1.119e+3, -2.624e-1
1.120e+3, -2.624e-1
1.121e+3, -2.624e-1
1.122e+3, -2.623e-1
1.123e+3, -2.623e-1
1.124e+3, -2.622e-1
1.125e+3, -2.622e-1
1.126e+3, -2.622e-1
1.127e+3, -2.621e-1
1.128e+3, -2.621e-1
1.129e+3, -2.621e-1
1.130e+3, -2.620e-1
1.131e+3, -2.620e-1
1.132e+3, -2.619e-1
1.133e+3, -2.619e-1
1.134e+3, -2.619e-1
1.135e+3, -2.618e-1
1.136e+3, -2.618e-1
1.137e+3, -2.617e-1
1.138e+3, -2.617e-1
1.139e+3, -2.617e-1
1.140e+3, -2.616e-1
1.141e+3, -2.616e-1
1.142e+3, -2.616e-1
1.143e+3, -2.615e-1
1.144e+3, -2.615e-1
1.145e+3, -2.615e-1
1.146e+3, -2.614e-1
1.147e+3, -2.614e-1
1.148e+3, -2.614e-1
1.149e+3, -2.613e-1
1.150e+3, -2.613e-1
1.151e+3, -2.613e-1
1.152e+3, -2.612e-1
1.153e+3, -2.612e-1
1.154e+3, -2.612e-1
1.155e+3, -2.612e-1
1.156e+3, -2.611e-1
1.157e+3, -2.611e-1
1.158e+3, -2.610e-1
1.159e+3, -2.610e-1
1.160e+3, -2.610e-1
1.161e+3, -2.609e-1
1.162e+3, -2.609e-1
1.163e+3, -2.609e-1
1.164e+3, -2.608e-1
1.165e+3, -2.608e-1
1.166e+3, -2.607e-1
1.167e+3, -2.607e-1
1.168e+3, -2.607e-1
1.169e+3, -2.607e-1
1.170e+3, -2.606e-1
1.171e+3, -2.606e-1
1.172e+3, -2.606e-1
1.173e+3, -2.605e-1
1.174e+3, -2.605e-1
1.175e+3, -2.604e-1
1.176e+3, -2.604e-1
1.177e+3, -2.604e-1
1.178e+3, -2.603e-1
1.179e+3, -2.603e-1
1.180e+3, -2.603e-1
1.181e+3, -2.602e-1
1.182e+3, -2.602e-1
1.183e+3, -2.602e-1
1.184e+3, -2.601e-1
1.185e+3, -2.601e-1
1.186e+3, -2.601e-1
1.187e+3, -2.600e-1
1.188e+3, -2.600e-1
1.189e+3, -2.600e-1
1.190e+3, -2.599e-1
1.191e+3, -2.599e-1
1.192e+3, -2.599e-1
1.193e+3, -2.598e-1
1.194e+3, -2.598e-1
1.195e+3, -2.597e-1
1.196e+3, -2.597e-1
1.197e+3, -2.597e-1
1.198e+3, -2.596e-1
1.199e+3, -2.596e-1
1.200e+3, -2.595e-1
1.201e+3, -2.595e-1
1.202e+3, -2.595e-1
1.203e+3, -2.594e-1
1.204e+3, -2.594e-1
1.205e+3, -2.593e-1
1.206e+3, -2.593e-1
1.207e+3, -2.593e-1
1.208e+3, -2.592e-1
1.209e+3, -2.592e-1
1.210e+3, -2.592e-1
1.211e+3, -2.591e-1
1.212e+3, -2.591e-1
1.213e+3, -2.590e-1
1.214e+3, -2.590e-1
1.215e+3, -2.590e-1
1.216e+3, -2.589e-1
1.217e+3, -2.589e-1
1.218e+3, -2.589e-1
1.219e+3, -2.588e-1
1.220e+3, -2.588e-1
1.221e+3, -2.588e-1
1.222e+3, -2.587e-1
1.223e+3, -2.587e-1
1.224e+3, -2.587e-1
1.225e+3, -2.586e-1
1.226e+3, -2.586e-1
1.227e+3, -2.586e-1
1.228e+3, -2.585e-1
1.229e+3, -2.585e-1
1.230e+3, -2.585e-1
1.231e+3, -2.584e-1
1.232e+3, -2.584e-1
1.233e+3, -2.584e-1
1.234e+3, -2.583e-1
1.235e+3, -2.583e-1
1.236e+3, -2.582e-1
1.237e+3, -2.582e-1
1.238e+3, -2.582e-1
1.239e+3, -2.582e-1
1.240e+3, -2.581e-1
1.241e+3, -2.581e-1
1.242e+3, -2.581e-1
1.243e+3, -2.580e-1
1.244e+3, -2.580e-1
1.245e+3, -2.579e-1
1.246e+3, -2.579e-1
1.247e+3, -2.579e-1
1.248e+3, -2.578e-1
1.249e+3, -2.578e-1
1.250e+3, -2.578e-1
1.251e+3, -2.577e-1
1.252e+3, -2.577e-1
1.253e+3, -2.577e-1
1.254e+3, -2.576e-1
1.255e+3, -2.576e-1
1.256e+3, -2.576e-1
1.257e+3, -2.575e-1
1.258e+3, -2.575e-1
1.259e+3, -2.575e-1
1.260e+3, -2.574e-1
1.261e+3, -2.574e-1
1.262e+3, -2.573e-1
1.263e+3, -2.573e-1
1.264e+3, -2.572e-1
1.265e+3, -2.572e-1
1.266e+3, -2.571e-1
1.267e+3, -2.571e-1
1.268e+3, -2.571e-1
1.269e+3, -2.570e-1
1.270e+3, -2.570e-1
1.271e+3, -2.569e-1
1.272e+3, -2.569e-1
1.273e+3, -2.569e-1
1.274e+3, -2.569e-1
1.275e+3, -2.568e-1
1.276e+3, -2.568e-1
1.277e+3, -2.568e-1
1.278e+3, -2.567e-1
1.279e+3, -2.567e-1
1.280e+3, -2.567e-1
1.281e+3, -2.567e-1
1.282e+3, -2.566e-1
1.283e+3, -2.566e-1
1.284e+3, -2.566e-1
1.285e+3, -2.565e-1
1.286e+3, -2.565e-1
1.287e+3, -2.565e-1
1.288e+3, -2.564e-1
1.289e+3, -2.564e-1
1.290e+3, -2.563e-1
1.291e+3, -2.563e-1
1.292e+3, -2.563e-1
1.293e+3, -2.562e-1
1.294e+3, -2.562e-1
1.295e+3, -2.562e-1
1.296e+3, -2.561e-1
1.297e+3, -2.561e-1
1.298e+3, -2.561e-1
1.299e+3, -2.560e-1
1.300e+3, -2.560e-1
1.301e+3, -2.560e-1
1.302e+3, -2.559e-1
1.303e+3, -2.559e-1
1.304e+3, -2.559e-1
1.305e+3, -2.558e-1
1.306e+3, -2.558e-1
1.307e+3, -2.558e-1
1.308e+3, -2.557e-1
1.309e+3, -2.557e-1
1.310e+3, -2.557e-1
1.311e+3, -2.556e-1
1.312e+3, -2.556e-1
1.313e+3, -2.556e-1
1.314e+3, -2.555e-1
1.315e+3, -2.555e-1
1.316e+3, -2.555e-1
1.317e+3, -2.554e-1
1.318e+3, -2.554e-1
1.319e+3, -2.553e-1
1.320e+3, -2.553e-1
1.321e+3, -2.553e-1
1.322e+3, -2.552e-1
1.323e+3, -2.552e-1
1.324e+3, -2.552e-1
1.325e+3, -2.551e-1
1.326e+3, -2.551e-1
1.327e+3, -2.551e-1
1.328e+3, -2.550e-1
1.329e+3, -2.550e-1
1.330e+3, -2.550e-1
1.331e+3, -2.549e-1
1.332e+3, -2.549e-1
1.333e+3, -2.549e-1
1.334e+3, -2.548e-1
1.335e+3, -2.548e-1
1.336e+3, -2.548e-1
1.337e+3, -2.547e-1
1.338e+3, -2.547e-1
1.339e+3, -2.547e-1
1.340e+3, -2.546e-1
1.341e+3, -2.546e-1
1.342e+3, -2.545e-1
1.343e+3, -2.545e-1
1.344e+3, -2.545e-1
1.345e+3, -2.545e-1
1.346e+3, -2.544e-1
1.347e+3, -2.544e-1
1.348e+3, -2.544e-1
1.349e+3, -2.543e-1
1.350e+3, -2.543e-1
1.351e+3, -2.543e-1
1.352e+3, -2.542e-1
1.353e+3, -2.542e-1
1.354e+3, -2.542e-1
1.355e+3, -2.541e-1
1.356e+3, -2.541e-1
1.357e+3, -2.541e-1
1.358e+3, -2.540e-1
1.359e+3, -2.540e-1
1.360e+3, -2.540e-1
1.361e+3, -2.539e-1
1.362e+3, -2.539e-1
1.363e+3, -2.539e-1
1.364e+3, -2.538e-1
1.365e+3, -2.538e-1
1.366e+3, -2.538e-1
1.367e+3, -2.537e-1
1.368e+3, -2.537e-1
1.369e+3, -2.537e-1
1.370e+3, -2.536e-1
1.371e+3, -2.536e-1
1.372e+3, -2.536e-1
1.373e+3, -2.536e-1
1.374e+3, -2.535e-1
1.375e+3, -2.535e-1
1.376e+3, -2.535e-1
1.377e+3, -2.534e-1
1.378e+3, -2.534e-1
1.379e+3, -2.534e-1
1.380e+3, -2.534e-1
1.381e+3, -2.533e-1
1.382e+3, -2.533e-1
1.383e+3, -2.533e-1
1.384e+3, -2.532e-1
1.385e+3, -2.532e-1
1.386e+3, -2.532e-1
1.387e+3, -2.532e-1
1.388e+3, -2.531e-1
1.389e+3, -2.531e-1
1.390e+3, -2.531e-1
1.391e+3, -2.530e-1
1.392e+3, -2.530e-1
1.393e+3, -2.529e-1
1.394e+3, -2.529e-1
1.395e+3, -2.529e-1
1.396e+3, -2.528e-1
1.397e+3, -2.528e-1
1.398e+3, -2.528e-1
1.399e+3, -2.527e-1
1.400e+3, -2.527e-1
1.401e+3, -2.527e-1
1.402e+3, -2.526e-1
1.403e+3, -2.526e-1
1.404e+3, -2.525e-1
1.405e+3, -2.525e-1
1.406e+3, -2.524e-1
1.407e+3, -2.524e-1
1.408e+3, -2.524e-1
1.409e+3, -2.523e-1
1.410e+3, -2.523e-1
1.411e+3, -2.523e-1
1.412e+3, -2.522e-1
1.413e+3, -2.522e-1
1.414e+3, -2.522e-1
1.415e+3, -2.521e-1
1.416e+3, -2.521e-1
1.417e+3, -2.521e-1
1.418e+3, -2.520e-1
1.419e+3, -2.520e-1
1.420e+3, -2.520e-1
1.421e+3, -2.519e-1
1.422e+3, -2.519e-1
1.423e+3, -2.519e-1
1.424e+3, -2.518e-1
1.425e+3, -2.518e-1
1.426e+3, -2.518e-1
1.427e+3, -2.517e-1
1.428e+3, -2.517e-1
1.429e+3, -2.517e-1
1.430e+3, -2.517e-1
1.431e+3, -2.516e-1
1.432e+3, -2.516e-1
1.433e+3, -2.516e-1
1.434e+3, -2.515e-1
1.435e+3, -2.515e-1
1.436e+3, -2.514e-1
1.437e+3, -2.513e-1
1.438e+3, -2.513e-1
1.439e+3, -2.513e-1
1.440e+3, -2.513e-1
1.441e+3, -2.512e-1
1.442e+3, -2.512e-1
1.443e+3, -2.511e-1
1.444e+3, -2.511e-1
1.445e+3, -2.511e-1
1.446e+3, -2.511e-1
1.447e+3, -2.511e-1
1.448e+3, -2.510e-1
1.449e+3, -2.510e-1
1.450e+3, -2.510e-1
1.451e+3, -2.510e-1
1.452e+3, -2.509e-1
1.453e+3, -2.509e-1
1.454e+3, -2.509e-1
1.455e+3, -2.509e-1
1.456e+3, -2.508e-1
1.457e+3, -2.508e-1
1.458e+3, -2.508e-1
1.459e+3, -2.507e-1
1.460e+3, -2.507e-1
1.461e+3, -2.507e-1
1.462e+3, -2.507e-1
1.463e+3, -2.506e-1
1.464e+3, -2.506e-1
1.465e+3, -2.506e-1
1.466e+3, -2.505e-1
1.467e+3, -2.505e-1
1.468e+3, -2.505e-1
1.469e+3, -2.504e-1
1.470e+3, -2.504e-1
1.471e+3, -2.504e-1
1.472e+3, -2.504e-1
1.473e+3, -2.503e-1
1.474e+3, -2.503e-1
1.475e+3, -2.503e-1
1.476e+3, -2.502e-1
1.477e+3, -2.502e-1
1.478e+3, -2.502e-1
1.479e+3, -2.501e-1
1.480e+3, -2.501e-1
1.481e+3, -2.500e-1
1.482e+3, -2.500e-1
1.483e+3, -2.500e-1
1.484e+3, -2.499e-1
1.485e+3, -2.499e-1
1.486e+3, -2.499e-1
1.487e+3, -2.498e-1
1.488e+3, -2.498e-1
1.489e+3, -2.498e-1
1.490e+3, -2.497e-1
1.491e+3, -2.497e-1
1.492e+3, -2.497e-1
1.493e+3, -2.496e-1
1.494e+3, -2.496e-1
1.495e+3, -2.496e-1
1.496e+3, -2.495e-1
1.497e+3, -2.495e-1
1.498e+3, -2.494e-1
1.499e+3, -2.494e-1
1.500e+3, -2.494e-1
1.501e+3, -2.493e-1
1.502e+3, -2.493e-1
1.503e+3, -2.493e-1
1.504e+3, -2.492e-1
1.505e+3, -2.492e-1
1.506e+3, -2.492e-1
1.507e+3, -2.492e-1
1.508e+3, -2.491e-1
1.509e+3, -2.491e-1
1.510e+3, -2.490e-1
1.511e+3, -2.490e-1
1.512e+3, -2.490e-1
1.513e+3, -2.489e-1
1.514e+3, -2.489e-1
1.515e+3, -2.489e-1
1.516e+3, -2.489e-1
1.517e+3, -2.488e-1
1.518e+3, -2.488e-1
1.519e+3, -2.488e-1
1.520e+3, -2.488e-1
1.521e+3, -2.487e-1
1.522e+3, -2.487e-1
1.523e+3, -2.486e-1
1.524e+3, -2.486e-1
1.525e+3, -2.486e-1
1.526e+3, -2.485e-1
1.527e+3, -2.485e-1
1.528e+3, -2.485e-1
1.529e+3, -2.484e-1
1.530e+3, -2.484e-1
1.531e+3, -2.483e-1
1.532e+3, -2.483e-1
1.533e+3, -2.483e-1
1.534e+3, -2.483e-1
1.535e+3, -2.482e-1
1.536e+3, -2.482e-1
1.537e+3, -2.482e-1
1.538e+3, -2.481e-1
1.539e+3, -2.481e-1
1.540e+3, -2.481e-1
1.541e+3, -2.481e-1
1.542e+3, -2.480e-1
1.543e+3, -2.480e-1
1.544e+3, -2.480e-1
1.545e+3, -2.480e-1
1.546e+3, -2.479e-1
1.547e+3, -2.479e-1
1.548e+3, -2.479e-1
1.549e+3, -2.479e-1
1.550e+3, -2.478e-1
1.551e+3, -2.478e-1
1.552e+3, -2.477e-1
1.553e+3, -2.477e-1
1.554e+3, -2.477e-1
1.555e+3, -2.477e-1
1.556e+3, -2.476e-1
1.557e+3, -2.476e-1
1.558e+3, -2.476e-1
1.559e+3, -2.475e-1
1.560e+3, -2.475e-1
1.561e+3, -2.475e-1
1.562e+3, -2.475e-1
1.563e+3, -2.474e-1
1.564e+3, -2.474e-1
1.565e+3, -2.473e-1
1.566e+3, -2.473e-1
1.567e+3, -2.473e-1
1.568e+3, -2.472e-1
1.569e+3, -2.472e-1
1.570e+3, -2.472e-1
1.571e+3, -2.471e-1
1.572e+3, -2.471e-1
1.573e+3, -2.471e-1
1.574e+3, -2.471e-1
1.575e+3, -2.470e-1
1.576e+3, -2.470e-1
1.577e+3, -2.470e-1
1.578e+3, -2.470e-1
1.579e+3, -2.469e-1
1.580e+3, -2.469e-1
1.581e+3, -2.469e-1
1.582e+3, -2.468e-1
1.583e+3, -2.468e-1
1.584e+3, -2.468e-1
1.585e+3, -2.467e-1
1.586e+3, -2.467e-1
1.587e+3, -2.467e-1
1.588e+3, -2.466e-1
1.589e+3, -2.466e-1
1.590e+3, -2.466e-1
1.591e+3, -2.465e-1
1.592e+3, -2.465e-1
1.593e+3, -2.465e-1
1.594e+3, -2.464e-1
1.595e+3, -2.464e-1
1.596e+3, -2.464e-1
1.597e+3, -2.464e-1
1.598e+3, -2.463e-1
1.599e+3, -2.463e-1
1.600e+3, -2.463e-1
1.601e+3, -2.462e-1
1.602e+3, -2.462e-1
1.603e+3, -2.462e-1
1.604e+3, -2.462e-1
1.605e+3, -2.461e-1
1.606e+3, -2.461e-1
1.607e+3, -2.461e-1
1.608e+3, -2.460e-1
1.609e+3, -2.460e-1
1.610e+3, -2.460e-1
1.611e+3, -2.460e-1
1.612e+3, -2.459e-1
1.613e+3, -2.459e-1
1.614e+3, -2.459e-1
1.615e+3, -2.458e-1
1.616e+3, -2.458e-1
1.617e+3, -2.458e-1
1.618e+3, -2.457e-1
1.619e+3, -2.457e-1
1.620e+3, -2.456e-1
1.621e+3, -2.456e-1
1.622e+3, -2.456e-1
1.623e+3, -2.455e-1
1.624e+3, -2.455e-1
1.625e+3, -2.454e-1
1.626e+3, -2.454e-1
1.627e+3, -2.454e-1
1.628e+3, -2.454e-1
1.629e+3, -2.453e-1
1.630e+3, -2.453e-1
1.631e+3, -2.453e-1
1.632e+3, -2.453e-1
1.633e+3, -2.453e-1
1.634e+3, -2.452e-1
1.635e+3, -2.452e-1
1.636e+3, -2.452e-1
1.637e+3, -2.452e-1
1.638e+3, -2.451e-1
1.639e+3, -2.451e-1
1.640e+3, -2.451e-1
1.641e+3, -2.450e-1
1.642e+3, -2.450e-1
1.643e+3, -2.450e-1
1.644e+3, -2.449e-1
1.645e+3, -2.449e-1
1.646e+3, -2.449e-1
1.647e+3, -2.448e-1
1.648e+3, -2.448e-1
1.649e+3, -2.448e-1
1.650e+3, -2.448e-1
1.651e+3, -2.447e-1
1.652e+3, -2.447e-1
1.653e+3, -2.447e-1
1.654e+3, -2.446e-1
1.655e+3, -2.446e-1
1.656e+3, -2.446e-1
1.657e+3, -2.445e-1
1.658e+3, -2.445e-1
1.659e+3, -2.445e-1
1.660e+3, -2.444e-1
1.661e+3, -2.444e-1
1.662e+3, -2.444e-1
1.663e+3, -2.443e-1
1.664e+3, -2.443e-1
1.665e+3, -2.443e-1
1.666e+3, -2.443e-1
1.667e+3, -2.442e-1
1.668e+3, -2.442e-1
1.669e+3, -2.442e-1
1.670e+3, -2.442e-1
1.671e+3, -2.441e-1
1.672e+3, -2.441e-1
1.673e+3, -2.441e-1
1.674e+3, -2.440e-1
1.675e+3, -2.440e-1
1.676e+3, -2.440e-1
1.677e+3, -2.439e-1
1.678e+3, -2.439e-1
1.679e+3, -2.439e-1
1.680e+3, -2.439e-1
1.681e+3, -2.438e-1
1.682e+3, -2.438e-1
1.683e+3, -2.438e-1
1.684e+3, -2.437e-1
1.685e+3, -2.437e-1
1.686e+3, -2.437e-1
1.687e+3, -2.436e-1
1.688e+3, -2.436e-1
1.689e+3, -2.436e-1
1.690e+3, -2.436e-1
1.691e+3, -2.435e-1
1.692e+3, -2.435e-1
1.693e+3, -2.435e-1
1.694e+3, -2.434e-1
1.695e+3, -2.434e-1
1.696e+3, -2.434e-1
1.697e+3, -2.433e-1
1.698e+3, -2.433e-1
1.699e+3, -2.433e-1
1.700e+3, -2.432e-1
1.701e+3, -2.432e-1
1.702e+3, -2.432e-1
1.703e+3, -2.432e-1
1.704e+3, -2.431e-1
1.705e+3, -2.431e-1
1.706e+3, -2.431e-1
1.707e+3, -2.431e-1
1.708e+3, -2.430e-1
1.709e+3, -2.430e-1
1.710e+3, -2.430e-1
1.711e+3, -2.429e-1
1.712e+3, -2.429e-1
1.713e+3, -2.429e-1
1.714e+3, -2.428e-1
1.715e+3, -2.428e-1
1.716e+3, -2.428e-1
1.717e+3, -2.427e-1
1.718e+3, -2.427e-1
1.719e+3, -2.427e-1
1.720e+3, -2.427e-1
1.721e+3, -2.426e-1
1.722e+3, -2.426e-1
1.723e+3, -2.426e-1
1.724e+3, -2.425e-1
1.725e+3, -2.425e-1
1.726e+3, -2.425e-1
1.727e+3, -2.424e-1
1.728e+3, -2.424e-1
1.729e+3, -2.424e-1
1.730e+3, -2.423e-1
1.731e+3, -2.423e-1
1.732e+3, -2.423e-1
1.733e+3, -2.423e-1
1.734e+3, -2.422e-1
1.735e+3, -2.422e-1
1.736e+3, -2.422e-1
1.737e+3, -2.422e-1
1.738e+3, -2.421e-1
1.739e+3, -2.421e-1
1.740e+3, -2.421e-1
1.741e+3, -2.420e-1
1.742e+3, -2.420e-1
1.743e+3, -2.420e-1
1.744e+3, -2.420e-1
1.745e+3, -2.419e-1
1.746e+3, -2.419e-1
1.747e+3, -2.419e-1
1.748e+3, -2.419e-1
1.749e+3, -2.418e-1
1.750e+3, -2.418e-1
1.751e+3, -2.418e-1
1.752e+3, -2.417e-1
1.753e+3, -2.417e-1
1.754e+3, -2.417e-1
1.755e+3, -2.417e-1
1.756e+3, -2.416e-1
1.757e+3, -2.416e-1
1.758e+3, -2.416e-1
1.759e+3, -2.415e-1
1.760e+3, -2.415e-1
1.761e+3, -2.415e-1
1.762e+3, -2.414e-1
1.763e+3, -2.414e-1
1.764e+3, -2.414e-1
1.765e+3, -2.414e-1
1.766e+3, -2.413e-1
1.767e+3, -2.413e-1
1.768e+3, -2.413e-1
1.769e+3, -2.412e-1
1.770e+3, -2.412e-1
1.771e+3, -2.412e-1
1.772e+3, -2.411e-1
1.773e+3, -2.411e-1
1.774e+3, -2.411e-1
1.775e+3, -2.410e-1
1.776e+3, -2.410e-1
1.777e+3, -2.410e-1
1.778e+3, -2.409e-1
1.779e+3, -2.409e-1
1.780e+3, -2.409e-1
1.781e+3, -2.409e-1
1.782e+3, -2.408e-1
1.783e+3, -2.408e-1
1.784e+3, -2.408e-1
1.785e+3, -2.408e-1
1.786e+3, -2.407e-1
1.787e+3, -2.407e-1
1.788e+3, -2.407e-1
1.789e+3, -2.406e-1
1.790e+3, -2.406e-1
1.791e+3, -2.406e-1
1.792e+3, -2.406e-1
1.793e+3, -2.405e-1
1.794e+3, -2.405e-1
1.795e+3, -2.405e-1
1.796e+3, -2.404e-1
1.797e+3, -2.404e-1
1.798e+3, -2.404e-1
1.799e+3, -2.403e-1
1.800e+3, -2.403e-1
