Sept. 9, 2026   18:14:04
Cyclic Voltammetry
File: d:\desktop\sample\ni foil\ni_foil_cv 200 mv.bin
Data Source:  Experiment
Instrument Model:  CHI660D
Header: 
Note: 

Init E (V) = 0.15
High E (V) = 0.25
Low E (V) = 0.15
Init P/N = P
Scan Rate (V/s) = 0.2
Segment = 20
Sample Interval (V) = 0.001
Quiet Time (sec) = 10
Sensitivity (A/V) = 0.001

Results:

Channel 1:
Segment 1:

Segment 2:

Segment 3:

Segment 4:

Segment 5:

Segment 6:

Segment 7:

Segment 8:

Segment 9:

Segment 10:

Segment 11:

Segment 12:

Segment 13:

Segment 14:

Segment 15:

Segment 16:

Segment 17:

Segment 18:

Segment 19:

Segment 20:

Potential/V, Current/A

0.150, 1.256e-5
0.151, 2.303e-5
0.152, 2.460e-5
0.153, 2.601e-5
0.154, 2.684e-5
0.155, 2.754e-5
0.156, 2.832e-5
0.157, 2.846e-5
0.158, 2.926e-5
0.159, 2.981e-5
0.160, 3.005e-5
0.161, 3.055e-5
0.162, 3.086e-5
0.163, 3.107e-5
0.164, 3.155e-5
0.165, 3.171e-5
0.166, 3.185e-5
0.167, 3.237e-5
0.168, 3.273e-5
0.169, 3.298e-5
0.170, 3.314e-5
0.171, 3.349e-5
0.172, 3.391e-5
0.173, 3.399e-5
0.174, 3.422e-5
0.175, 3.480e-5
0.176, 3.471e-5
0.177, 3.510e-5
0.178, 3.534e-5
0.179, 3.581e-5
0.180, 3.605e-5
0.181, 3.619e-5
0.182, 3.629e-5
0.183, 3.660e-5
0.184, 3.695e-5
0.185, 3.724e-5
0.186, 3.718e-5
0.187, 3.780e-5
0.188, 3.806e-5
0.189, 3.818e-5
0.190, 3.834e-5
0.191, 3.903e-5
0.192, 3.877e-5
0.193, 3.949e-5
0.194, 3.942e-5
0.195, 3.989e-5
0.196, 4.027e-5
0.197, 4.036e-5
0.198, 4.082e-5
0.199, 4.127e-5
0.200, 4.120e-5
0.201, 4.193e-5
0.202, 4.200e-5
0.203, 4.214e-5
0.204, 4.284e-5
0.205, 4.208e-5
0.206, 4.322e-5
0.207, 4.375e-5
0.208, 4.404e-5
0.209, 4.447e-5
0.210, 4.453e-5
0.211, 4.528e-5
0.212, 4.560e-5
0.213, 4.577e-5
0.214, 4.627e-5
0.215, 4.680e-5
0.216, 4.695e-5
0.217, 4.754e-5
0.218, 4.779e-5
0.219, 4.827e-5
0.220, 4.890e-5
0.221, 4.910e-5
0.222, 4.973e-5
0.223, 5.001e-5
0.224, 5.061e-5
0.225, 5.136e-5
0.226, 5.155e-5
0.227, 5.188e-5
0.228, 5.282e-5
0.229, 5.287e-5
0.230, 5.375e-5
0.231, 5.450e-5
0.232, 5.463e-5
0.233, 5.517e-5
0.234, 5.578e-5
0.235, 5.648e-5
0.236, 5.687e-5
0.237, 5.750e-5
0.238, 5.823e-5
0.239, 5.881e-5
0.240, 5.906e-5
0.241, 6.012e-5
0.242, 6.054e-5
0.243, 6.060e-5
0.244, 6.183e-5
0.245, 6.252e-5
0.246, 6.288e-5
0.247, 6.399e-5
0.248, 6.418e-5
0.249, 6.551e-5
0.250, 2.980e-5
0.249, -5.671e-6
0.248, -1.361e-5
0.247, -1.831e-5
0.246, -2.180e-5
0.245, -2.454e-5
0.244, -2.643e-5
0.243, -2.795e-5
0.242, -2.941e-5
0.241, -3.096e-5
0.240, -3.153e-5
0.239, -3.286e-5
0.238, -3.325e-5
0.237, -3.408e-5
0.236, -3.467e-5
0.235, -3.490e-5
0.234, -3.552e-5
0.233, -3.596e-5
0.232, -3.600e-5
0.231, -3.644e-5
0.230, -3.684e-5
0.229, -3.695e-5
0.228, -3.710e-5
0.227, -3.712e-5
0.226, -3.715e-5
0.225, -3.743e-5
0.224, -3.753e-5
0.223, -3.766e-5
0.222, -3.750e-5
0.221, -3.752e-5
0.220, -3.759e-5
0.219, -3.749e-5
0.218, -3.723e-5
0.217, -3.778e-5
0.216, -3.725e-5
0.215, -3.734e-5
0.214, -3.755e-5
0.213, -3.743e-5
0.212, -3.742e-5
0.211, -3.737e-5
0.210, -3.721e-5
0.209, -3.742e-5
0.208, -3.713e-5
0.207, -3.723e-5
0.206, -3.715e-5
0.205, -3.624e-5
0.204, -3.695e-5
0.203, -3.678e-5
0.202, -3.669e-5
0.201, -3.695e-5
0.200, -3.685e-5
0.199, -3.670e-5
0.198, -3.673e-5
0.197, -3.665e-5
0.196, -3.657e-5
0.195, -3.638e-5
0.194, -3.645e-5
0.193, -3.657e-5
0.192, -3.594e-5
0.191, -3.636e-5
0.190, -3.639e-5
0.189, -3.615e-5
0.188, -3.631e-5
0.187, -3.632e-5
0.186, -3.608e-5
0.185, -3.617e-5
0.184, -3.626e-5
0.183, -3.625e-5
0.182, -3.611e-5
0.181, -3.586e-5
0.180, -3.642e-5
0.179, -3.614e-5
0.178, -3.604e-5
0.177, -3.624e-5
0.176, -3.592e-5
0.175, -3.597e-5
0.174, -3.612e-5
0.173, -3.634e-5
0.172, -3.596e-5
0.171, -3.598e-5
0.170, -3.610e-5
0.169, -3.622e-5
0.168, -3.613e-5
0.167, -3.594e-5
0.166, -3.618e-5
0.165, -3.608e-5
0.164, -3.622e-5
0.163, -3.626e-5
0.162, -3.618e-5
0.161, -3.652e-5
0.160, -3.651e-5
0.159, -3.625e-5
0.158, -3.654e-5
0.157, -3.653e-5
0.156, -3.668e-5
0.155, -3.651e-5
0.154, -3.697e-5
0.153, -3.695e-5
0.152, -3.673e-5
0.151, -3.700e-5
0.150, -1.204e-5
0.151, 9.213e-6
0.152, 1.277e-5
0.153, 1.517e-5
0.154, 1.706e-5
0.155, 1.839e-5
0.156, 1.968e-5
0.157, 2.044e-5
0.158, 2.149e-5
0.159, 2.228e-5
0.160, 2.286e-5
0.161, 2.388e-5
0.162, 2.424e-5
0.163, 2.473e-5
0.164, 2.527e-5
0.165, 2.594e-5
0.166, 2.603e-5
0.167, 2.677e-5
0.168, 2.721e-5
0.169, 2.766e-5
0.170, 2.794e-5
0.171, 2.836e-5
0.172, 2.894e-5
0.173, 2.917e-5
0.174, 2.941e-5
0.175, 2.984e-5
0.176, 3.020e-5
0.177, 3.045e-5
0.178, 3.092e-5
0.179, 3.139e-5
0.180, 3.157e-5
0.181, 3.175e-5
0.182, 3.203e-5
0.183, 3.238e-5
0.184, 3.263e-5
0.185, 3.304e-5
0.186, 3.329e-5
0.187, 3.355e-5
0.188, 3.415e-5
0.189, 3.408e-5
0.190, 3.437e-5
0.191, 3.486e-5
0.192, 3.482e-5
0.193, 3.552e-5
0.194, 3.551e-5
0.195, 3.607e-5
0.196, 3.643e-5
0.197, 3.648e-5
0.198, 3.718e-5
0.199, 3.736e-5
0.200, 3.739e-5
0.201, 3.812e-5
0.202, 3.812e-5
0.203, 3.861e-5
0.204, 3.901e-5
0.205, 3.846e-5
0.206, 3.930e-5
0.207, 4.011e-5
0.208, 4.027e-5
0.209, 4.078e-5
0.210, 4.102e-5
0.211, 4.148e-5
0.212, 4.199e-5
0.213, 4.222e-5
0.214, 4.243e-5
0.215, 4.328e-5
0.216, 4.322e-5
0.217, 4.375e-5
0.218, 4.396e-5
0.219, 4.482e-5
0.220, 4.527e-5
0.221, 4.555e-5
0.222, 4.609e-5
0.223, 4.673e-5
0.224, 4.702e-5
0.225, 4.766e-5
0.226, 4.798e-5
0.227, 4.822e-5
0.228, 4.937e-5
0.229, 4.940e-5
0.230, 5.012e-5
0.231, 5.097e-5
0.232, 5.112e-5
0.233, 5.176e-5
0.234, 5.226e-5
0.235, 5.292e-5
0.236, 5.359e-5
0.237, 5.380e-5
0.238, 5.484e-5
0.239, 5.567e-5
0.240, 5.544e-5
0.241, 5.675e-5
0.242, 5.723e-5
0.243, 5.755e-5
0.244, 5.859e-5
0.245, 5.911e-5
0.246, 5.971e-5
0.247, 6.053e-5
0.248, 6.139e-5
0.249, 6.209e-5
0.250, 2.652e-5
0.249, -8.739e-6
0.248, -1.652e-5
0.247, -2.112e-5
0.246, -2.472e-5
0.245, -2.688e-5
0.244, -2.894e-5
0.243, -3.031e-5
0.242, -3.167e-5
0.241, -3.315e-5
0.240, -3.369e-5
0.239, -3.476e-5
0.238, -3.531e-5
0.237, -3.606e-5
0.236, -3.654e-5
0.235, -3.678e-5
0.234, -3.718e-5
0.233, -3.760e-5
0.232, -3.768e-5
0.231, -3.819e-5
0.230, -3.846e-5
0.229, -3.827e-5
0.228, -3.847e-5
0.227, -3.868e-5
0.226, -3.861e-5
0.225, -3.906e-5
0.224, -3.852e-5
0.223, -3.894e-5
0.222, -3.867e-5
0.221, -3.875e-5
0.220, -3.882e-5
0.219, -3.864e-5
0.218, -3.840e-5
0.217, -3.866e-5
0.216, -3.857e-5
0.215, -3.841e-5
0.214, -3.867e-5
0.213, -3.836e-5
0.212, -3.861e-5
0.211, -3.831e-5
0.210, -3.817e-5
0.209, -3.836e-5
0.208, -3.793e-5
0.207, -3.824e-5
0.206, -3.810e-5
0.205, -3.696e-5
0.204, -3.763e-5
0.203, -3.778e-5
0.202, -3.760e-5
0.201, -3.777e-5
0.200, -3.773e-5
0.199, -3.742e-5
0.198, -3.750e-5
0.197, -3.734e-5
0.196, -3.742e-5
0.195, -3.704e-5
0.194, -3.713e-5
0.193, -3.735e-5
0.192, -3.674e-5
0.191, -3.698e-5
0.190, -3.713e-5
0.189, -3.681e-5
0.188, -3.703e-5
0.187, -3.692e-5
0.186, -3.683e-5
0.185, -3.688e-5
0.184, -3.675e-5
0.183, -3.683e-5
0.182, -3.680e-5
0.181, -3.666e-5
0.180, -3.691e-5
0.179, -3.676e-5
0.178, -3.675e-5
0.177, -3.690e-5
0.176, -3.654e-5
0.175, -3.663e-5
0.174, -3.666e-5
0.173, -3.681e-5
0.172, -3.669e-5
0.171, -3.671e-5
0.170, -3.664e-5
0.169, -3.677e-5
0.168, -3.681e-5
0.167, -3.674e-5
0.166, -3.662e-5
0.165, -3.660e-5
0.164, -3.691e-5
0.163, -3.692e-5
0.162, -3.670e-5
0.161, -3.709e-5
0.160, -3.714e-5
0.159, -3.702e-5
0.158, -3.709e-5
0.157, -3.723e-5
0.156, -3.736e-5
0.155, -3.721e-5
0.154, -3.741e-5
0.153, -3.762e-5
0.152, -3.727e-5
0.151, -3.744e-5
0.150, -1.276e-5
0.151, 8.581e-6
0.152, 1.230e-5
0.153, 1.490e-5
0.154, 1.656e-5
0.155, 1.793e-5
0.156, 1.924e-5
0.157, 2.003e-5
0.158, 2.104e-5
0.159, 2.200e-5
0.160, 2.253e-5
0.161, 2.343e-5
0.162, 2.390e-5
0.163, 2.431e-5
0.164, 2.506e-5
0.165, 2.563e-5
0.166, 2.576e-5
0.167, 2.645e-5
0.168, 2.675e-5
0.169, 2.740e-5
0.170, 2.749e-5
0.171, 2.799e-5
0.172, 2.864e-5
0.173, 2.876e-5
0.174, 2.911e-5
0.175, 2.965e-5
0.176, 2.966e-5
0.177, 3.014e-5
0.178, 3.057e-5
0.179, 3.103e-5
0.180, 3.120e-5
0.181, 3.144e-5
0.182, 3.175e-5
0.183, 3.211e-5
0.184, 3.233e-5
0.185, 3.272e-5
0.186, 3.280e-5
0.187, 3.320e-5
0.188, 3.374e-5
0.189, 3.386e-5
0.190, 3.398e-5
0.191, 3.456e-5
0.192, 3.454e-5
0.193, 3.497e-5
0.194, 3.545e-5
0.195, 3.571e-5
0.196, 3.597e-5
0.197, 3.621e-5
0.198, 3.666e-5
0.199, 3.699e-5
0.200, 3.724e-5
0.201, 3.763e-5
0.202, 3.789e-5
0.203, 3.805e-5
0.204, 3.867e-5
0.205, 3.803e-5
0.206, 3.901e-5
0.207, 3.974e-5
0.208, 3.993e-5
0.209, 4.037e-5
0.210, 4.052e-5
0.211, 4.110e-5
0.212, 4.170e-5
0.213, 4.167e-5
0.214, 4.219e-5
0.215, 4.280e-5
0.216, 4.294e-5
0.217, 4.352e-5
0.218, 4.359e-5
0.219, 4.424e-5
0.220, 4.481e-5
0.221, 4.526e-5
0.222, 4.550e-5
0.223, 4.610e-5
0.224, 4.655e-5
0.225, 4.723e-5
0.226, 4.735e-5
0.227, 4.802e-5
0.228, 4.869e-5
0.229, 4.904e-5
0.230, 4.954e-5
0.231, 5.033e-5
0.232, 5.086e-5
0.233, 5.126e-5
0.234, 5.171e-5
0.235, 5.239e-5
0.236, 5.301e-5
0.237, 5.352e-5
0.238, 5.414e-5
0.239, 5.490e-5
0.240, 5.524e-5
0.241, 5.613e-5
0.242, 5.651e-5
0.243, 5.678e-5
0.244, 5.785e-5
0.245, 5.884e-5
0.246, 5.920e-5
0.247, 5.987e-5
0.248, 6.052e-5
0.249, 6.163e-5
0.250, 2.588e-5
0.249, -9.288e-6
0.248, -1.694e-5
0.247, -2.169e-5
0.246, -2.510e-5
0.245, -2.742e-5
0.244, -2.937e-5
0.243, -3.077e-5
0.242, -3.208e-5
0.241, -3.352e-5
0.240, -3.426e-5
0.239, -3.527e-5
0.238, -3.585e-5
0.237, -3.631e-5
0.236, -3.696e-5
0.235, -3.716e-5
0.234, -3.746e-5
0.233, -3.803e-5
0.232, -3.822e-5
0.231, -3.844e-5
0.230, -3.877e-5
0.229, -3.883e-5
0.228, -3.877e-5
0.227, -3.877e-5
0.226, -3.889e-5
0.225, -3.907e-5
0.224, -3.904e-5
0.223, -3.911e-5
0.222, -3.895e-5
0.221, -3.904e-5
0.220, -3.899e-5
0.219, -3.906e-5
0.218, -3.862e-5
0.217, -3.900e-5
0.216, -3.882e-5
0.215, -3.851e-5
0.214, -3.880e-5
0.213, -3.873e-5
0.212, -3.880e-5
0.211, -3.848e-5
0.210, -3.862e-5
0.209, -3.854e-5
0.208, -3.819e-5
0.207, -3.835e-5
0.206, -3.817e-5
0.205, -3.717e-5
0.204, -3.812e-5
0.203, -3.800e-5
0.202, -3.771e-5
0.201, -3.788e-5
0.200, -3.785e-5
0.199, -3.769e-5
0.198, -3.770e-5
0.197, -3.755e-5
0.196, -3.763e-5
0.195, -3.726e-5
0.194, -3.743e-5
0.193, -3.756e-5
0.192, -3.693e-5
0.191, -3.723e-5
0.190, -3.715e-5
0.189, -3.706e-5
0.188, -3.717e-5
0.187, -3.704e-5
0.186, -3.693e-5
0.185, -3.711e-5
0.184, -3.685e-5
0.183, -3.710e-5
0.182, -3.701e-5
0.181, -3.675e-5
0.180, -3.711e-5
0.179, -3.708e-5
0.178, -3.689e-5
0.177, -3.706e-5
0.176, -3.673e-5
0.175, -3.681e-5
0.174, -3.690e-5
0.173, -3.697e-5
0.172, -3.708e-5
0.171, -3.678e-5
0.170, -3.695e-5
0.169, -3.710e-5
0.168, -3.683e-5
0.167, -3.685e-5
0.166, -3.695e-5
0.165, -3.698e-5
0.164, -3.699e-5
0.163, -3.702e-5
0.162, -3.715e-5
0.161, -3.728e-5
0.160, -3.719e-5
0.159, -3.727e-5
0.158, -3.747e-5
0.157, -3.731e-5
0.156, -3.736e-5
0.155, -3.744e-5
0.154, -3.770e-5
0.153, -3.784e-5
0.152, -3.765e-5
0.151, -3.777e-5
0.150, -1.280e-5
0.151, 8.373e-6
0.152, 1.216e-5
0.153, 1.461e-5
0.154, 1.654e-5
0.155, 1.767e-5
0.156, 1.909e-5
0.157, 1.990e-5
0.158, 2.113e-5
0.159, 2.199e-5
0.160, 2.238e-5
0.161, 2.327e-5
0.162, 2.368e-5
0.163, 2.425e-5
0.164, 2.492e-5
0.165, 2.550e-5
0.166, 2.557e-5
0.167, 2.634e-5
0.168, 2.675e-5
0.169, 2.730e-5
0.170, 2.746e-5
0.171, 2.797e-5
0.172, 2.851e-5
0.173, 2.862e-5
0.174, 2.905e-5
0.175, 2.949e-5
0.176, 2.953e-5
0.177, 3.010e-5
0.178, 3.052e-5
0.179, 3.089e-5
0.180, 3.116e-5
0.181, 3.129e-5
0.182, 3.152e-5
0.183, 3.203e-5
0.184, 3.207e-5
0.185, 3.266e-5
0.186, 3.285e-5
0.187, 3.301e-5
0.188, 3.358e-5
0.189, 3.368e-5
0.190, 3.399e-5
0.191, 3.450e-5
0.192, 3.436e-5
0.193, 3.493e-5
0.194, 3.515e-5
0.195, 3.556e-5
0.196, 3.590e-5
0.197, 3.613e-5
0.198, 3.650e-5
0.199, 3.695e-5
0.200, 3.687e-5
0.201, 3.745e-5
0.202, 3.773e-5
0.203, 3.826e-5
0.204, 3.831e-5
0.205, 3.804e-5
0.206, 3.892e-5
0.207, 3.945e-5
0.208, 3.981e-5
0.209, 4.030e-5
0.210, 4.038e-5
0.211, 4.109e-5
0.212, 4.152e-5
0.213, 4.151e-5
0.214, 4.191e-5
0.215, 4.274e-5
0.216, 4.263e-5
0.217, 4.318e-5
0.218, 4.358e-5
0.219, 4.418e-5
0.220, 4.452e-5
0.221, 4.514e-5
0.222, 4.552e-5
0.223, 4.603e-5
0.224, 4.626e-5
0.225, 4.706e-5
0.226, 4.722e-5
0.227, 4.766e-5
0.228, 4.850e-5
0.229, 4.885e-5
0.230, 4.956e-5
0.231, 5.028e-5
0.232, 5.038e-5
0.233, 5.122e-5
0.234, 5.131e-5
0.235, 5.223e-5
0.236, 5.295e-5
0.237, 5.314e-5
0.238, 5.395e-5
0.239, 5.443e-5
0.240, 5.468e-5
0.241, 5.582e-5
0.242, 5.667e-5
0.243, 5.658e-5
0.244, 5.779e-5
0.245, 5.833e-5
0.246, 5.873e-5
0.247, 5.987e-5
0.248, 6.038e-5
0.249, 6.126e-5
0.250, 2.590e-5
0.249, -9.626e-6
0.248, -1.728e-5
0.247, -2.193e-5
0.246, -2.520e-5
0.245, -2.765e-5
0.244, -2.952e-5
0.243, -3.110e-5
0.242, -3.215e-5
0.241, -3.362e-5
0.240, -3.459e-5
0.239, -3.530e-5
0.238, -3.585e-5
0.237, -3.658e-5
0.236, -3.711e-5
0.235, -3.716e-5
0.234, -3.769e-5
0.233, -3.808e-5
0.232, -3.815e-5
0.231, -3.860e-5
0.230, -3.894e-5
0.229, -3.889e-5
0.228, -3.900e-5
0.227, -3.887e-5
0.226, -3.905e-5
0.225, -3.923e-5
0.224, -3.923e-5
0.223, -3.916e-5
0.222, -3.916e-5
0.221, -3.881e-5
0.220, -3.947e-5
0.219, -3.917e-5
0.218, -3.843e-5
0.217, -3.923e-5
0.216, -3.898e-5
0.215, -3.882e-5
0.214, -3.888e-5
0.213, -3.885e-5
0.212, -3.868e-5
0.211, -3.855e-5
0.210, -3.865e-5
0.209, -3.882e-5
0.208, -3.820e-5
0.207, -3.836e-5
0.206, -3.823e-5
0.205, -3.739e-5
0.204, -3.800e-5
0.203, -3.808e-5
0.202, -3.787e-5
0.201, -3.789e-5
0.200, -3.799e-5
0.199, -3.795e-5
0.198, -3.770e-5
0.197, -3.775e-5
0.196, -3.766e-5
0.195, -3.749e-5
0.194, -3.744e-5
0.193, -3.784e-5
0.192, -3.668e-5
0.191, -3.725e-5
0.190, -3.741e-5
0.189, -3.710e-5
0.188, -3.725e-5
0.187, -3.717e-5
0.186, -3.734e-5
0.185, -3.702e-5
0.184, -3.690e-5
0.183, -3.711e-5
0.182, -3.705e-5
0.181, -3.693e-5
0.180, -3.720e-5
0.179, -3.707e-5
0.178, -3.699e-5
0.177, -3.710e-5
0.176, -3.695e-5
0.175, -3.695e-5
0.174, -3.698e-5
0.173, -3.711e-5
0.172, -3.698e-5
0.171, -3.697e-5
0.170, -3.713e-5
0.169, -3.708e-5
0.168, -3.699e-5
0.167, -3.690e-5
0.166, -3.703e-5
0.165, -3.708e-5
0.164, -3.722e-5
0.163, -3.724e-5
0.162, -3.717e-5
0.161, -3.724e-5
0.160, -3.749e-5
0.159, -3.731e-5
0.158, -3.745e-5
0.157, -3.757e-5
0.156, -3.765e-5
0.155, -3.749e-5
0.154, -3.781e-5
0.153, -3.795e-5
0.152, -3.774e-5
0.151, -3.775e-5
0.150, -1.296e-5
0.151, 8.296e-6
0.152, 1.197e-5
0.153, 1.457e-5
0.154, 1.643e-5
0.155, 1.778e-5
0.156, 1.906e-5
0.157, 1.991e-5
0.158, 2.082e-5
0.159, 2.177e-5
0.160, 2.233e-5
0.161, 2.322e-5
0.162, 2.380e-5
0.163, 2.434e-5
0.164, 2.482e-5
0.165, 2.535e-5
0.166, 2.547e-5
0.167, 2.628e-5
0.168, 2.673e-5
0.169, 2.725e-5
0.170, 2.755e-5
0.171, 2.798e-5
0.172, 2.844e-5
0.173, 2.850e-5
0.174, 2.889e-5
0.175, 2.957e-5
0.176, 2.939e-5
0.177, 3.008e-5
0.178, 3.042e-5
0.179, 3.097e-5
0.180, 3.094e-5
0.181, 3.136e-5
0.182, 3.138e-5
0.183, 3.201e-5
0.184, 3.209e-5
0.185, 3.263e-5
0.186, 3.288e-5
0.187, 3.299e-5
0.188, 3.359e-5
0.189, 3.361e-5
0.190, 3.388e-5
0.191, 3.455e-5
0.192, 3.412e-5
0.193, 3.493e-5
0.194, 3.512e-5
0.195, 3.549e-5
0.196, 3.591e-5
0.197, 3.606e-5
0.198, 3.647e-5
0.199, 3.691e-5
0.200, 3.682e-5
0.201, 3.748e-5
0.202, 3.774e-5
0.203, 3.794e-5
0.204, 3.838e-5
0.205, 3.781e-5
0.206, 3.883e-5
0.207, 3.949e-5
0.208, 3.955e-5
0.209, 4.033e-5
0.210, 4.020e-5
0.211, 4.104e-5
0.212, 4.141e-5
0.213, 4.138e-5
0.214, 4.191e-5
0.215, 4.267e-5
0.216, 4.259e-5
0.217, 4.301e-5
0.218, 4.351e-5
0.219, 4.419e-5
0.220, 4.439e-5
0.221, 4.480e-5
0.222, 4.556e-5
0.223, 4.569e-5
0.224, 4.615e-5
0.225, 4.706e-5
0.226, 4.720e-5
0.227, 4.764e-5
0.228, 4.819e-5
0.229, 4.876e-5
0.230, 4.931e-5
0.231, 5.027e-5
0.232, 5.047e-5
0.233, 5.082e-5
0.234, 5.132e-5
0.235, 5.216e-5
0.236, 5.272e-5
0.237, 5.298e-5
0.238, 5.373e-5
0.239, 5.463e-5
0.240, 5.480e-5
0.241, 5.577e-5
0.242, 5.603e-5
0.243, 5.649e-5
0.244, 5.771e-5
0.245, 5.822e-5
0.246, 5.864e-5
0.247, 5.956e-5
0.248, 6.034e-5
0.249, 6.101e-5
0.250, 2.573e-5
0.249, -9.644e-6
0.248, -1.711e-5
0.247, -2.226e-5
0.246, -2.537e-5
0.245, -2.772e-5
0.244, -2.958e-5
0.243, -3.120e-5
0.242, -3.228e-5
0.241, -3.381e-5
0.240, -3.464e-5
0.239, -3.535e-5
0.238, -3.594e-5
0.237, -3.668e-5
0.236, -3.725e-5
0.235, -3.731e-5
0.234, -3.772e-5
0.233, -3.824e-5
0.232, -3.825e-5
0.231, -3.873e-5
0.230, -3.885e-5
0.229, -3.884e-5
0.228, -3.881e-5
0.227, -3.895e-5
0.226, -3.923e-5
0.225, -3.924e-5
0.224, -3.916e-5
0.223, -3.934e-5
0.222, -3.924e-5
0.221, -3.914e-5
0.220, -3.929e-5
0.219, -3.916e-5
0.218, -3.858e-5
0.217, -3.910e-5
0.216, -3.906e-5
0.215, -3.875e-5
0.214, -3.898e-5
0.213, -3.879e-5
0.212, -3.881e-5
0.211, -3.864e-5
0.210, -3.875e-5
0.209, -3.888e-5
0.208, -3.825e-5
0.207, -3.853e-5
0.206, -3.851e-5
0.205, -3.722e-5
0.204, -3.817e-5
0.203, -3.807e-5
0.202, -3.810e-5
0.201, -3.804e-5
0.200, -3.774e-5
0.199, -3.793e-5
0.198, -3.772e-5
0.197, -3.770e-5
0.196, -3.774e-5
0.195, -3.746e-5
0.194, -3.748e-5
0.193, -3.782e-5
0.192, -3.692e-5
0.191, -3.742e-5
0.190, -3.733e-5
0.189, -3.734e-5
0.188, -3.735e-5
0.187, -3.721e-5
0.186, -3.727e-5
0.185, -3.734e-5
0.184, -3.712e-5
0.183, -3.704e-5
0.182, -3.702e-5
0.181, -3.683e-5
0.180, -3.738e-5
0.179, -3.730e-5
0.178, -3.698e-5
0.177, -3.718e-5
0.176, -3.698e-5
0.175, -3.698e-5
0.174, -3.723e-5
0.173, -3.704e-5
0.172, -3.699e-5
0.171, -3.711e-5
0.170, -3.715e-5
0.169, -3.713e-5
0.168, -3.705e-5
0.167, -3.696e-5
0.166, -3.723e-5
0.165, -3.692e-5
0.164, -3.726e-5
0.163, -3.725e-5
0.162, -3.720e-5
0.161, -3.740e-5
0.160, -3.757e-5
0.159, -3.748e-5
0.158, -3.754e-5
0.157, -3.744e-5
0.156, -3.778e-5
0.155, -3.753e-5
0.154, -3.799e-5
0.153, -3.813e-5
0.152, -3.761e-5
0.151, -3.802e-5
0.150, -1.305e-5
0.151, 8.382e-6
0.152, 1.206e-5
0.153, 1.458e-5
0.154, 1.641e-5
0.155, 1.775e-5
0.156, 1.903e-5
0.157, 1.992e-5
0.158, 2.077e-5
0.159, 2.175e-5
0.160, 2.241e-5
0.161, 2.320e-5
0.162, 2.365e-5
0.163, 2.434e-5
0.164, 2.471e-5
0.165, 2.538e-5
0.166, 2.549e-5
0.167, 2.635e-5
0.168, 2.655e-5
0.169, 2.718e-5
0.170, 2.735e-5
0.171, 2.797e-5
0.172, 2.840e-5
0.173, 2.862e-5
0.174, 2.883e-5
0.175, 2.951e-5
0.176, 2.961e-5
0.177, 2.999e-5
0.178, 3.028e-5
0.179, 3.100e-5
0.180, 3.096e-5
0.181, 3.112e-5
0.182, 3.150e-5
0.183, 3.185e-5
0.184, 3.203e-5
0.185, 3.263e-5
0.186, 3.283e-5
0.187, 3.279e-5
0.188, 3.362e-5
0.189, 3.366e-5
0.190, 3.380e-5
0.191, 3.456e-5
0.192, 3.420e-5
0.193, 3.469e-5
0.194, 3.516e-5
0.195, 3.546e-5
0.196, 3.578e-5
0.197, 3.604e-5
0.198, 3.636e-5
0.199, 3.687e-5
0.200, 3.691e-5
0.201, 3.744e-5
0.202, 3.757e-5
0.203, 3.794e-5
0.204, 3.840e-5
0.205, 3.771e-5
0.206, 3.888e-5
0.207, 3.946e-5
0.208, 3.952e-5
0.209, 4.016e-5
0.210, 4.029e-5
0.211, 4.084e-5
0.212, 4.142e-5
0.213, 4.131e-5
0.214, 4.182e-5
0.215, 4.234e-5
0.216, 4.273e-5
0.217, 4.291e-5
0.218, 4.351e-5
0.219, 4.407e-5
0.220, 4.436e-5
0.221, 4.481e-5
0.222, 4.520e-5
0.223, 4.603e-5
0.224, 4.608e-5
0.225, 4.688e-5
0.226, 4.717e-5
0.227, 4.763e-5
0.228, 4.823e-5
0.229, 4.878e-5
0.230, 4.930e-5
0.231, 4.987e-5
0.232, 5.026e-5
0.233, 5.099e-5
0.234, 5.116e-5
0.235, 5.185e-5
0.236, 5.263e-5
0.237, 5.292e-5
0.238, 5.355e-5
0.239, 5.460e-5
0.240, 5.478e-5
0.241, 5.563e-5
0.242, 5.624e-5
0.243, 5.652e-5
0.244, 5.718e-5
0.245, 5.821e-5
0.246, 5.859e-5
0.247, 5.945e-5
0.248, 6.027e-5
0.249, 6.115e-5
0.250, 2.552e-5
0.249, -9.910e-6
0.248, -1.729e-5
0.247, -2.220e-5
0.246, -2.545e-5
0.245, -2.779e-5
0.244, -2.989e-5
0.243, -3.124e-5
0.242, -3.239e-5
0.241, -3.384e-5
0.240, -3.447e-5
0.239, -3.557e-5
0.238, -3.612e-5
0.237, -3.672e-5
0.236, -3.719e-5
0.235, -3.746e-5
0.234, -3.777e-5
0.233, -3.820e-5
0.232, -3.821e-5
0.231, -3.872e-5
0.230, -3.912e-5
0.229, -3.886e-5
0.228, -3.896e-5
0.227, -3.904e-5
0.226, -3.923e-5
0.225, -3.926e-5
0.224, -3.907e-5
0.223, -3.956e-5
0.222, -3.917e-5
0.221, -3.907e-5
0.220, -3.923e-5
0.219, -3.914e-5
0.218, -3.868e-5
0.217, -3.929e-5
0.216, -3.898e-5
0.215, -3.887e-5
0.214, -3.901e-5
0.213, -3.880e-5
0.212, -3.876e-5
0.211, -3.882e-5
0.210, -3.856e-5
0.209, -3.878e-5
0.208, -3.834e-5
0.207, -3.869e-5
0.206, -3.839e-5
0.205, -3.736e-5
0.204, -3.806e-5
0.203, -3.803e-5
0.202, -3.802e-5
0.201, -3.802e-5
0.200, -3.811e-5
0.199, -3.783e-5
0.198, -3.777e-5
0.197, -3.759e-5
0.196, -3.781e-5
0.195, -3.749e-5
0.194, -3.742e-5
0.193, -3.789e-5
0.192, -3.707e-5
0.191, -3.744e-5
0.190, -3.751e-5
0.189, -3.733e-5
0.188, -3.735e-5
0.187, -3.718e-5
0.186, -3.742e-5
0.185, -3.716e-5
0.184, -3.704e-5
0.183, -3.716e-5
0.182, -3.721e-5
0.181, -3.687e-5
0.180, -3.725e-5
0.179, -3.732e-5
0.178, -3.698e-5
0.177, -3.733e-5
0.176, -3.690e-5
0.175, -3.706e-5
0.174, -3.712e-5
0.173, -3.722e-5
0.172, -3.705e-5
0.171, -3.703e-5
0.170, -3.702e-5
0.169, -3.726e-5
0.168, -3.702e-5
0.167, -3.713e-5
0.166, -3.716e-5
0.165, -3.710e-5
0.164, -3.740e-5
0.163, -3.738e-5
0.162, -3.714e-5
0.161, -3.748e-5
0.160, -3.761e-5
0.159, -3.747e-5
0.158, -3.778e-5
0.157, -3.747e-5
0.156, -3.782e-5
0.155, -3.767e-5
0.154, -3.775e-5
0.153, -3.810e-5
0.152, -3.809e-5
0.151, -3.789e-5
0.150, -1.303e-5
0.151, 8.280e-6
0.152, 1.222e-5
0.153, 1.462e-5
0.154, 1.621e-5
0.155, 1.764e-5
0.156, 1.912e-5
0.157, 1.968e-5
0.158, 2.072e-5
0.159, 2.178e-5
0.160, 2.227e-5
0.161, 2.314e-5
0.162, 2.385e-5
0.163, 2.411e-5
0.164, 2.484e-5
0.165, 2.527e-5
0.166, 2.557e-5
0.167, 2.614e-5
0.168, 2.655e-5
0.169, 2.720e-5
0.170, 2.747e-5
0.171, 2.772e-5
0.172, 2.848e-5
0.173, 2.863e-5
0.174, 2.897e-5
0.175, 2.953e-5
0.176, 2.958e-5
0.177, 2.998e-5
0.178, 3.015e-5
0.179, 3.096e-5
0.180, 3.103e-5
0.181, 3.123e-5
0.182, 3.145e-5
0.183, 3.193e-5
0.184, 3.185e-5
0.185, 3.253e-5
0.186, 3.278e-5
0.187, 3.294e-5
0.188, 3.347e-5
0.189, 3.371e-5
0.190, 3.394e-5
0.191, 3.433e-5
0.192, 3.418e-5
0.193, 3.477e-5
0.194, 3.513e-5
0.195, 3.543e-5
0.196, 3.574e-5
0.197, 3.601e-5
0.198, 3.625e-5
0.199, 3.666e-5
0.200, 3.695e-5
0.201, 3.740e-5
0.202, 3.765e-5
0.203, 3.775e-5
0.204, 3.834e-5
0.205, 3.784e-5
0.206, 3.891e-5
0.207, 3.910e-5
0.208, 3.960e-5
0.209, 4.005e-5
0.210, 4.047e-5
0.211, 4.066e-5
0.212, 4.145e-5
0.213, 4.138e-5
0.214, 4.161e-5
0.215, 4.265e-5
0.216, 4.259e-5
0.217, 4.294e-5
0.218, 4.327e-5
0.219, 4.394e-5
0.220, 4.449e-5
0.221, 4.461e-5
0.222, 4.535e-5
0.223, 4.594e-5
0.224, 4.607e-5
0.225, 4.677e-5
0.226, 4.716e-5
0.227, 4.719e-5
0.228, 4.833e-5
0.229, 4.873e-5
0.230, 4.923e-5
0.231, 4.988e-5
0.232, 5.026e-5
0.233, 5.097e-5
0.234, 5.126e-5
0.235, 5.173e-5
0.236, 5.263e-5
0.237, 5.311e-5
0.238, 5.372e-5
0.239, 5.432e-5
0.240, 5.468e-5
0.241, 5.553e-5
0.242, 5.625e-5
0.243, 5.622e-5
0.244, 5.753e-5
0.245, 5.782e-5
0.246, 5.863e-5
0.247, 5.952e-5
0.248, 6.011e-5
0.249, 6.067e-5
0.250, 2.575e-5
0.249, -9.975e-6
0.248, -1.760e-5
0.247, -2.213e-5
0.246, -2.538e-5
0.245, -2.755e-5
0.244, -2.992e-5
0.243, -3.119e-5
0.242, -3.252e-5
0.241, -3.400e-5
0.240, -3.459e-5
0.239, -3.555e-5
0.238, -3.594e-5
0.237, -3.672e-5
0.236, -3.730e-5
0.235, -3.744e-5
0.234, -3.774e-5
0.233, -3.838e-5
0.232, -3.830e-5
0.231, -3.883e-5
0.230, -3.892e-5
0.229, -3.886e-5
0.228, -3.905e-5
0.227, -3.915e-5
0.226, -3.900e-5
0.225, -3.948e-5
0.224, -3.914e-5
0.223, -3.933e-5
0.222, -3.933e-5
0.221, -3.924e-5
0.220, -3.908e-5
0.219, -3.922e-5
0.218, -3.882e-5
0.217, -3.906e-5
0.216, -3.906e-5
0.215, -3.898e-5
0.214, -3.882e-5
0.213, -3.896e-5
0.212, -3.897e-5
0.211, -3.883e-5
0.210, -3.864e-5
0.209, -3.897e-5
0.208, -3.815e-5
0.207, -3.865e-5
0.206, -3.859e-5
0.205, -3.731e-5
0.204, -3.812e-5
0.203, -3.808e-5
0.202, -3.802e-5
0.201, -3.803e-5
0.200, -3.792e-5
0.199, -3.786e-5
0.198, -3.795e-5
0.197, -3.783e-5
0.196, -3.773e-5
0.195, -3.753e-5
0.194, -3.763e-5
0.193, -3.765e-5
0.192, -3.712e-5
0.191, -3.739e-5
0.190, -3.737e-5
0.189, -3.736e-5
0.188, -3.729e-5
0.187, -3.716e-5
0.186, -3.738e-5
0.185, -3.724e-5
0.184, -3.705e-5
0.183, -3.728e-5
0.182, -3.720e-5
0.181, -3.700e-5
0.180, -3.744e-5
0.179, -3.727e-5
0.178, -3.716e-5
0.177, -3.714e-5
0.176, -3.707e-5
0.175, -3.708e-5
0.174, -3.706e-5
0.173, -3.713e-5
0.172, -3.711e-5
0.171, -3.702e-5
0.170, -3.714e-5
0.169, -3.728e-5
0.168, -3.716e-5
0.167, -3.715e-5
0.166, -3.725e-5
0.165, -3.721e-5
0.164, -3.726e-5
0.163, -3.729e-5
0.162, -3.735e-5
0.161, -3.751e-5
0.160, -3.767e-5
0.159, -3.746e-5
0.158, -3.755e-5
0.157, -3.776e-5
0.156, -3.776e-5
0.155, -3.774e-5
0.154, -3.795e-5
0.153, -3.811e-5
0.152, -3.799e-5
0.151, -3.798e-5
0.150, -1.313e-5
0.151, 8.301e-6
0.152, 1.190e-5
0.153, 1.460e-5
0.154, 1.615e-5
0.155, 1.781e-5
0.156, 1.892e-5
0.157, 1.995e-5
0.158, 2.078e-5
0.159, 2.177e-5
0.160, 2.242e-5
0.161, 2.306e-5
0.162, 2.372e-5
0.163, 2.429e-5
0.164, 2.488e-5
0.165, 2.521e-5
0.166, 2.543e-5
0.167, 2.630e-5
0.168, 2.655e-5
0.169, 2.704e-5
0.170, 2.742e-5
0.171, 2.769e-5
0.172, 2.843e-5
0.173, 2.856e-5
0.174, 2.897e-5
0.175, 2.957e-5
0.176, 2.961e-5
0.177, 2.986e-5
0.178, 3.015e-5
0.179, 3.100e-5
0.180, 3.104e-5
0.181, 3.124e-5
0.182, 3.145e-5
0.183, 3.186e-5
0.184, 3.200e-5
0.185, 3.259e-5
0.186, 3.267e-5
0.187, 3.314e-5
0.188, 3.339e-5
0.189, 3.359e-5
0.190, 3.391e-5
0.191, 3.421e-5
0.192, 3.435e-5
0.193, 3.478e-5
0.194, 3.507e-5
0.195, 3.522e-5
0.196, 3.586e-5
0.197, 3.596e-5
0.198, 3.628e-5
0.199, 3.677e-5
0.200, 3.685e-5
0.201, 3.748e-5
0.202, 3.745e-5
0.203, 3.783e-5
0.204, 3.830e-5
0.205, 3.777e-5
0.206, 3.893e-5
0.207, 3.943e-5
0.208, 3.935e-5
0.209, 3.992e-5
0.210, 4.043e-5
0.211, 4.067e-5
0.212, 4.118e-5
0.213, 4.148e-5
0.214, 4.164e-5
0.215, 4.247e-5
0.216, 4.263e-5
0.217, 4.307e-5
0.218, 4.306e-5
0.219, 4.394e-5
0.220, 4.451e-5
0.221, 4.459e-5
0.222, 4.526e-5
0.223, 4.595e-5
0.224, 4.599e-5
0.225, 4.674e-5
0.226, 4.716e-5
0.227, 4.730e-5
0.228, 4.824e-5
0.229, 4.864e-5
0.230, 4.915e-5
0.231, 4.981e-5
0.232, 5.009e-5
0.233, 5.096e-5
0.234, 5.099e-5
0.235, 5.193e-5
0.236, 5.265e-5
0.237, 5.295e-5
0.238, 5.359e-5
0.239, 5.435e-5
0.240, 5.442e-5
0.241, 5.562e-5
0.242, 5.622e-5
0.243, 5.598e-5
0.244, 5.737e-5
0.245, 5.802e-5
0.246, 5.862e-5
0.247, 5.920e-5
0.248, 6.012e-5
0.249, 6.098e-5
0.250, 2.552e-5
0.249, -1.014e-5
0.248, -1.745e-5
0.247, -2.216e-5
0.246, -2.556e-5
0.245, -2.759e-5
0.244, -3.000e-5
0.243, -3.108e-5
0.242, -3.272e-5
0.241, -3.395e-5
0.240, -3.440e-5
0.239, -3.546e-5
0.238, -3.603e-5
0.237, -3.666e-5
0.236, -3.732e-5
0.235, -3.748e-5
0.234, -3.771e-5
0.233, -3.846e-5
0.232, -3.827e-5
0.231, -3.864e-5
0.230, -3.906e-5
0.229, -3.912e-5
0.228, -3.899e-5
0.227, -3.898e-5
0.226, -3.915e-5
0.225, -3.924e-5
0.224, -3.930e-5
0.223, -3.935e-5
0.222, -3.933e-5
0.221, -3.921e-5
0.220, -3.944e-5
0.219, -3.919e-5
0.218, -3.881e-5
0.217, -3.917e-5
0.216, -3.912e-5
0.215, -3.902e-5
0.214, -3.878e-5
0.213, -3.891e-5
0.212, -3.908e-5
0.211, -3.866e-5
0.210, -3.867e-5
0.209, -3.878e-5
0.208, -3.845e-5
0.207, -3.862e-5
0.206, -3.843e-5
0.205, -3.757e-5
0.204, -3.806e-5
0.203, -3.810e-5
0.202, -3.804e-5
0.201, -3.814e-5
0.200, -3.799e-5
0.199, -3.786e-5
0.198, -3.810e-5
0.197, -3.784e-5
0.196, -3.783e-5
0.195, -3.751e-5
0.194, -3.753e-5
0.193, -3.758e-5
0.192, -3.725e-5
0.191, -3.744e-5
0.190, -3.738e-5
0.189, -3.735e-5
0.188, -3.738e-5
0.187, -3.708e-5
0.186, -3.730e-5
0.185, -3.735e-5
0.184, -3.696e-5
0.183, -3.731e-5
0.182, -3.719e-5
0.181, -3.716e-5
0.180, -3.732e-5
0.179, -3.741e-5
0.178, -3.706e-5
0.177, -3.725e-5
0.176, -3.696e-5
0.175, -3.702e-5
0.174, -3.716e-5
0.173, -3.729e-5
0.172, -3.722e-5
0.171, -3.693e-5
0.170, -3.702e-5
0.169, -3.744e-5
0.168, -3.712e-5
0.167, -3.719e-5
0.166, -3.728e-5
0.165, -3.702e-5
0.164, -3.739e-5
0.163, -3.742e-5
0.162, -3.727e-5
0.161, -3.763e-5
0.160, -3.748e-5
0.159, -3.764e-5
0.158, -3.773e-5
0.157, -3.761e-5
0.156, -3.779e-5
0.155, -3.771e-5
0.154, -3.814e-5
0.153, -3.804e-5
0.152, -3.801e-5
0.151, -3.816e-5
0.150, -1.308e-5
0.151, 8.301e-6
0.152, 1.195e-5
0.153, 1.462e-5
0.154, 1.627e-5
0.155, 1.765e-5
0.156, 1.899e-5
0.157, 1.972e-5
0.158, 2.082e-5
0.159, 2.171e-5
0.160, 2.234e-5
0.161, 2.299e-5
0.162, 2.368e-5
0.163, 2.423e-5
0.164, 2.477e-5
0.165, 2.527e-5
0.166, 2.554e-5
0.167, 2.633e-5
0.168, 2.664e-5
0.169, 2.716e-5
0.170, 2.730e-5
0.171, 2.772e-5
0.172, 2.850e-5
0.173, 2.851e-5
0.174, 2.894e-5
0.175, 2.950e-5
0.176, 2.947e-5
0.177, 3.003e-5
0.178, 3.032e-5
0.179, 3.092e-5
0.180, 3.106e-5
0.181, 3.117e-5
0.182, 3.151e-5
0.183, 3.204e-5
0.184, 3.189e-5
0.185, 3.261e-5
0.186, 3.279e-5
0.187, 3.293e-5
0.188, 3.338e-5
0.189, 3.355e-5
0.190, 3.371e-5
0.191, 3.442e-5
0.192, 3.417e-5
0.193, 3.488e-5
0.194, 3.495e-5
0.195, 3.537e-5
0.196, 3.579e-5
0.197, 3.575e-5
0.198, 3.629e-5
0.199, 3.679e-5
0.200, 3.686e-5
0.201, 3.714e-5
0.202, 3.766e-5
0.203, 3.781e-5
0.204, 3.831e-5
0.205, 3.772e-5
0.206, 3.874e-5
0.207, 3.923e-5
0.208, 3.942e-5
0.209, 4.005e-5
0.210, 4.043e-5
0.211, 4.058e-5
0.212, 4.109e-5
0.213, 4.150e-5
0.214, 4.184e-5
0.215, 4.238e-5
0.216, 4.258e-5
0.217, 4.286e-5
0.218, 4.323e-5
0.219, 4.391e-5
0.220, 4.425e-5
0.221, 4.469e-5
0.222, 4.513e-5
0.223, 4.598e-5
0.224, 4.598e-5
0.225, 4.672e-5
0.226, 4.711e-5
0.227, 4.737e-5
0.228, 4.830e-5
0.229, 4.852e-5
0.230, 4.930e-5
0.231, 4.988e-5
0.232, 5.003e-5
0.233, 5.097e-5
0.234, 5.098e-5
0.235, 5.195e-5
0.236, 5.234e-5
0.237, 5.273e-5
0.238, 5.340e-5
0.239, 5.447e-5
0.240, 5.464e-5
0.241, 5.532e-5
0.242, 5.607e-5
0.243, 5.617e-5
0.244, 5.734e-5
0.245, 5.810e-5
0.246, 5.832e-5
0.247, 5.954e-5
0.248, 5.984e-5
0.249, 6.093e-5
0.250, 2.570e-5
0.249, -1.019e-5
0.248, -1.751e-5
0.247, -2.219e-5
0.246, -2.542e-5
0.245, -2.790e-5
0.244, -2.984e-5
0.243, -3.129e-5
0.242, -3.242e-5
0.241, -3.404e-5
0.240, -3.457e-5
0.239, -3.571e-5
0.238, -3.615e-5
0.237, -3.664e-5
0.236, -3.726e-5
0.235, -3.753e-5
0.234, -3.779e-5
0.233, -3.829e-5
0.232, -3.825e-5
0.231, -3.882e-5
0.230, -3.905e-5
0.229, -3.902e-5
0.228, -3.904e-5
0.227, -3.903e-5
0.226, -3.915e-5
0.225, -3.947e-5
0.224, -3.901e-5
0.223, -3.937e-5
0.222, -3.946e-5
0.221, -3.920e-5
0.220, -3.917e-5
0.219, -3.919e-5
0.218, -3.876e-5
0.217, -3.923e-5
0.216, -3.922e-5
0.215, -3.888e-5
0.214, -3.891e-5
0.213, -3.893e-5
0.212, -3.890e-5
0.211, -3.886e-5
0.210, -3.872e-5
0.209, -3.877e-5
0.208, -3.848e-5
0.207, -3.866e-5
0.206, -3.839e-5
0.205, -3.742e-5
0.204, -3.823e-5
0.203, -3.813e-5
0.202, -3.800e-5
0.201, -3.791e-5
0.200, -3.786e-5
0.199, -3.796e-5
0.198, -3.784e-5
0.197, -3.788e-5
0.196, -3.782e-5
0.195, -3.764e-5
0.194, -3.765e-5
0.193, -3.766e-5
0.192, -3.721e-5
0.191, -3.743e-5
0.190, -3.745e-5
0.189, -3.734e-5
0.188, -3.721e-5
0.187, -3.731e-5
0.186, -3.745e-5
0.185, -3.742e-5
0.184, -3.724e-5
0.183, -3.709e-5
0.182, -3.726e-5
0.181, -3.695e-5
0.180, -3.722e-5
0.179, -3.751e-5
0.178, -3.686e-5
0.177, -3.729e-5
0.176, -3.715e-5
0.175, -3.704e-5
0.174, -3.716e-5
0.173, -3.725e-5
0.172, -3.724e-5
0.171, -3.713e-5
0.170, -3.717e-5
0.169, -3.739e-5
0.168, -3.700e-5
0.167, -3.710e-5
0.166, -3.735e-5
0.165, -3.713e-5
0.164, -3.742e-5
0.163, -3.735e-5
0.162, -3.744e-5
0.161, -3.757e-5
0.160, -3.735e-5
0.159, -3.778e-5
0.158, -3.762e-5
0.157, -3.772e-5
0.156, -3.798e-5
0.155, -3.778e-5
0.154, -3.795e-5
0.153, -3.836e-5
0.152, -3.795e-5
0.151, -3.815e-5
0.150, -1.324e-5
0.151, 8.317e-6
0.152, 1.209e-5
0.153, 1.459e-5
0.154, 1.621e-5
0.155, 1.761e-5
0.156, 1.915e-5
0.157, 1.970e-5
0.158, 2.077e-5
0.159, 2.189e-5
0.160, 2.226e-5
0.161, 2.304e-5
0.162, 2.376e-5
0.163, 2.419e-5
0.164, 2.459e-5
0.165, 2.540e-5
0.166, 2.559e-5
0.167, 2.625e-5
0.168, 2.651e-5
0.169, 2.720e-5
0.170, 2.736e-5
0.171, 2.791e-5
0.172, 2.837e-5
0.173, 2.858e-5
0.174, 2.876e-5
0.175, 2.962e-5
0.176, 2.940e-5
0.177, 2.990e-5
0.178, 3.035e-5
0.179, 3.082e-5
0.180, 3.107e-5
0.181, 3.104e-5
0.182, 3.150e-5
0.183, 3.198e-5
0.184, 3.189e-5
0.185, 3.256e-5
0.186, 3.293e-5
0.187, 3.284e-5
0.188, 3.337e-5
0.189, 3.360e-5
0.190, 3.371e-5
0.191, 3.419e-5
0.192, 3.415e-5
0.193, 3.508e-5
0.194, 3.493e-5
0.195, 3.524e-5
0.196, 3.577e-5
0.197, 3.590e-5
0.198, 3.630e-5
0.199, 3.683e-5
0.200, 3.675e-5
0.201, 3.734e-5
0.202, 3.763e-5
0.203, 3.795e-5
0.204, 3.821e-5
0.205, 3.778e-5
0.206, 3.871e-5
0.207, 3.924e-5
0.208, 3.951e-5
0.209, 4.005e-5
0.210, 4.020e-5
0.211, 4.070e-5
0.212, 4.124e-5
0.213, 4.127e-5
0.214, 4.163e-5
0.215, 4.238e-5
0.216, 4.269e-5
0.217, 4.283e-5
0.218, 4.319e-5
0.219, 4.401e-5
0.220, 4.430e-5
0.221, 4.456e-5
0.222, 4.522e-5
0.223, 4.588e-5
0.224, 4.587e-5
0.225, 4.651e-5
0.226, 4.706e-5
0.227, 4.729e-5
0.228, 4.807e-5
0.229, 4.883e-5
0.230, 4.914e-5
0.231, 4.981e-5
0.232, 5.010e-5
0.233, 5.095e-5
0.234, 5.085e-5
0.235, 5.183e-5
0.236, 5.260e-5
0.237, 5.281e-5
0.238, 5.335e-5
0.239, 5.445e-5
0.240, 5.443e-5
0.241, 5.549e-5
0.242, 5.601e-5
0.243, 5.629e-5
0.244, 5.732e-5
0.245, 5.794e-5
0.246, 5.842e-5
0.247, 5.925e-5
0.248, 5.990e-5
0.249, 6.078e-5
0.250, 2.544e-5
0.249, -9.966e-6
0.248, -1.758e-5
0.247, -2.215e-5
0.246, -2.574e-5
0.245, -2.777e-5
0.244, -3.005e-5
0.243, -3.117e-5
0.242, -3.266e-5
0.241, -3.385e-5
0.240, -3.452e-5
0.239, -3.570e-5
0.238, -3.604e-5
0.237, -3.665e-5
0.236, -3.740e-5
0.235, -3.757e-5
0.234, -3.779e-5
0.233, -3.846e-5
0.232, -3.833e-5
0.231, -3.887e-5
0.230, -3.901e-5
0.229, -3.922e-5
0.228, -3.892e-5
0.227, -3.900e-5
0.226, -3.937e-5
0.225, -3.935e-5
0.224, -3.915e-5
0.223, -3.953e-5
0.222, -3.922e-5
0.221, -3.887e-5
0.220, -3.929e-5
0.219, -3.932e-5
0.218, -3.876e-5
0.217, -3.915e-5
0.216, -3.902e-5
0.215, -3.896e-5
0.214, -3.897e-5
0.213, -3.887e-5
0.212, -3.898e-5
0.211, -3.890e-5
0.210, -3.846e-5
0.209, -3.894e-5
0.208, -3.843e-5
0.207, -3.852e-5
0.206, -3.839e-5
0.205, -3.751e-5
0.204, -3.814e-5
0.203, -3.809e-5
0.202, -3.811e-5
0.201, -3.806e-5
0.200, -3.787e-5
0.199, -3.815e-5
0.198, -3.794e-5
0.197, -3.764e-5
0.196, -3.799e-5
0.195, -3.752e-5
0.194, -3.752e-5
0.193, -3.777e-5
0.192, -3.722e-5
0.191, -3.730e-5
0.190, -3.755e-5
0.189, -3.738e-5
0.188, -3.734e-5
0.187, -3.732e-5
0.186, -3.738e-5
0.185, -3.721e-5
0.184, -3.701e-5
0.183, -3.745e-5
0.182, -3.716e-5
0.181, -3.710e-5
0.180, -3.721e-5
0.179, -3.749e-5
0.178, -3.693e-5
0.177, -3.730e-5
0.176, -3.713e-5
0.175, -3.701e-5
0.174, -3.733e-5
0.173, -3.727e-5
0.172, -3.723e-5
0.171, -3.708e-5
0.170, -3.717e-5
0.169, -3.739e-5
0.168, -3.727e-5
0.167, -3.683e-5
0.166, -3.726e-5
0.165, -3.718e-5
0.164, -3.742e-5
0.163, -3.740e-5
0.162, -3.740e-5
0.161, -3.747e-5
0.160, -3.748e-5
0.159, -3.791e-5
0.158, -3.752e-5
0.157, -3.762e-5
0.156, -3.786e-5
0.155, -3.800e-5
0.154, -3.801e-5
0.153, -3.824e-5
0.152, -3.795e-5
0.151, -3.816e-5
