Sept. 9, 2026   18:13:42
Cyclic Voltammetry
File: d:\desktop\sample\ni foil\ni_foil_cv 160 mv.bin
Data Source:  Experiment
Instrument Model:  CHI660D
Header: 
Note: 

Init E (V) = 0.15
High E (V) = 0.25
Low E (V) = 0.15
Init P/N = P
Scan Rate (V/s) = 0.16
Segment = 20
Sample Interval (V) = 0.001
Quiet Time (sec) = 10
Sensitivity (A/V) = 0.001

Results:

Channel 1:
Segment 1:

Segment 2:

Segment 3:

Segment 4:

Segment 5:

Segment 6:

Segment 7:

Segment 8:

Segment 9:

Segment 10:

Segment 11:

Segment 12:

Segment 13:

Segment 14:

Segment 15:

Segment 16:

Segment 17:

Segment 18:

Segment 19:

Segment 20:

Potential/V, Current/A

0.150, 1.141e-5
0.151, 1.911e-5
0.152, 2.044e-5
0.153, 2.152e-5
0.154, 2.230e-5
0.155, 2.272e-5
0.156, 2.345e-5
0.157, 2.388e-5
0.158, 2.385e-5
0.159, 2.469e-5
0.160, 2.486e-5
0.161, 2.519e-5
0.162, 2.553e-5
0.163, 2.572e-5
0.164, 2.605e-5
0.165, 2.638e-5
0.166, 2.622e-5
0.167, 2.695e-5
0.168, 2.689e-5
0.169, 2.723e-5
0.170, 2.753e-5
0.171, 2.792e-5
0.172, 2.798e-5
0.173, 2.820e-5
0.174, 2.826e-5
0.175, 2.880e-5
0.176, 2.862e-5
0.177, 2.896e-5
0.178, 2.931e-5
0.179, 2.969e-5
0.180, 2.981e-5
0.181, 2.997e-5
0.182, 2.984e-5
0.183, 3.045e-5
0.184, 3.038e-5
0.185, 3.079e-5
0.186, 3.099e-5
0.187, 3.122e-5
0.188, 3.142e-5
0.189, 3.155e-5
0.190, 3.171e-5
0.191, 3.219e-5
0.192, 3.201e-5
0.193, 3.244e-5
0.194, 3.277e-5
0.195, 3.294e-5
0.196, 3.306e-5
0.197, 3.355e-5
0.198, 3.354e-5
0.199, 3.406e-5
0.200, 3.412e-5
0.201, 3.432e-5
0.202, 3.469e-5
0.203, 3.516e-5
0.204, 3.517e-5
0.205, 3.476e-5
0.206, 3.566e-5
0.207, 3.616e-5
0.208, 3.630e-5
0.209, 3.660e-5
0.210, 3.705e-5
0.211, 3.732e-5
0.212, 3.760e-5
0.213, 3.802e-5
0.214, 3.786e-5
0.215, 3.868e-5
0.216, 3.863e-5
0.217, 3.909e-5
0.218, 3.951e-5
0.219, 3.980e-5
0.220, 4.030e-5
0.221, 4.052e-5
0.222, 4.097e-5
0.223, 4.149e-5
0.224, 4.159e-5
0.225, 4.217e-5
0.226, 4.241e-5
0.227, 4.291e-5
0.228, 4.327e-5
0.229, 4.379e-5
0.230, 4.421e-5
0.231, 4.473e-5
0.232, 4.515e-5
0.233, 4.548e-5
0.234, 4.594e-5
0.235, 4.644e-5
0.236, 4.695e-5
0.237, 4.758e-5
0.238, 4.775e-5
0.239, 4.836e-5
0.240, 4.871e-5
0.241, 4.936e-5
0.242, 4.993e-5
0.243, 5.002e-5
0.244, 5.080e-5
0.245, 5.146e-5
0.246, 5.174e-5
0.247, 5.270e-5
0.248, 5.297e-5
0.249, 5.364e-5
0.250, 2.089e-5
0.249, -6.276e-6
0.248, -1.215e-5
0.247, -1.594e-5
0.246, -1.903e-5
0.245, -2.060e-5
0.244, -2.255e-5
0.243, -2.359e-5
0.242, -2.476e-5
0.241, -2.594e-5
0.240, -2.666e-5
0.239, -2.724e-5
0.238, -2.805e-5
0.237, -2.828e-5
0.236, -2.896e-5
0.235, -2.933e-5
0.234, -2.929e-5
0.233, -2.989e-5
0.232, -2.997e-5
0.231, -3.012e-5
0.230, -3.064e-5
0.229, -3.065e-5
0.228, -3.074e-5
0.227, -3.077e-5
0.226, -3.058e-5
0.225, -3.092e-5
0.224, -3.105e-5
0.223, -3.091e-5
0.222, -3.110e-5
0.221, -3.087e-5
0.220, -3.100e-5
0.219, -3.104e-5
0.218, -3.060e-5
0.217, -3.102e-5
0.216, -3.096e-5
0.215, -3.079e-5
0.214, -3.105e-5
0.213, -3.072e-5
0.212, -3.082e-5
0.211, -3.078e-5
0.210, -3.070e-5
0.209, -3.069e-5
0.208, -3.068e-5
0.207, -3.042e-5
0.206, -3.075e-5
0.205, -2.961e-5
0.204, -3.029e-5
0.203, -3.037e-5
0.202, -3.018e-5
0.201, -3.030e-5
0.200, -3.005e-5
0.199, -3.005e-5
0.198, -3.039e-5
0.197, -3.006e-5
0.196, -2.984e-5
0.195, -3.007e-5
0.194, -2.995e-5
0.193, -3.012e-5
0.192, -2.969e-5
0.191, -2.967e-5
0.190, -2.977e-5
0.189, -2.975e-5
0.188, -2.978e-5
0.187, -2.970e-5
0.186, -2.978e-5
0.185, -2.967e-5
0.184, -2.978e-5
0.183, -2.942e-5
0.182, -2.982e-5
0.181, -2.959e-5
0.180, -2.954e-5
0.179, -2.990e-5
0.178, -2.961e-5
0.177, -2.971e-5
0.176, -2.953e-5
0.175, -2.950e-5
0.174, -2.971e-5
0.173, -2.967e-5
0.172, -2.974e-5
0.171, -2.971e-5
0.170, -2.954e-5
0.169, -2.975e-5
0.168, -2.967e-5
0.167, -2.956e-5
0.166, -2.969e-5
0.165, -2.979e-5
0.164, -2.980e-5
0.163, -2.978e-5
0.162, -2.987e-5
0.161, -2.989e-5
0.160, -3.003e-5
0.159, -2.982e-5
0.158, -3.009e-5
0.157, -2.999e-5
0.156, -3.019e-5
0.155, -3.015e-5
0.154, -3.032e-5
0.153, -3.042e-5
0.152, -3.027e-5
0.151, -3.039e-5
0.150, -7.717e-6
0.151, 7.806e-6
0.152, 1.081e-5
0.153, 1.271e-5
0.154, 1.404e-5
0.155, 1.526e-5
0.156, 1.635e-5
0.157, 1.717e-5
0.158, 1.772e-5
0.159, 1.854e-5
0.160, 1.916e-5
0.161, 1.962e-5
0.162, 2.022e-5
0.163, 2.052e-5
0.164, 2.121e-5
0.165, 2.139e-5
0.166, 2.158e-5
0.167, 2.232e-5
0.168, 2.232e-5
0.169, 2.293e-5
0.170, 2.334e-5
0.171, 2.359e-5
0.172, 2.383e-5
0.173, 2.422e-5
0.174, 2.427e-5
0.175, 2.492e-5
0.176, 2.491e-5
0.177, 2.512e-5
0.178, 2.561e-5
0.179, 2.602e-5
0.180, 2.603e-5
0.181, 2.637e-5
0.182, 2.649e-5
0.183, 2.691e-5
0.184, 2.703e-5
0.185, 2.735e-5
0.186, 2.755e-5
0.187, 2.777e-5
0.188, 2.803e-5
0.189, 2.832e-5
0.190, 2.838e-5
0.191, 2.895e-5
0.192, 2.865e-5
0.193, 2.925e-5
0.194, 2.967e-5
0.195, 2.972e-5
0.196, 3.003e-5
0.197, 3.026e-5
0.198, 3.041e-5
0.199, 3.119e-5
0.200, 3.102e-5
0.201, 3.125e-5
0.202, 3.169e-5
0.203, 3.190e-5
0.204, 3.240e-5
0.205, 3.173e-5
0.206, 3.255e-5
0.207, 3.312e-5
0.208, 3.323e-5
0.209, 3.362e-5
0.210, 3.390e-5
0.211, 3.439e-5
0.212, 3.458e-5
0.213, 3.493e-5
0.214, 3.507e-5
0.215, 3.566e-5
0.216, 3.579e-5
0.217, 3.606e-5
0.218, 3.633e-5
0.219, 3.699e-5
0.220, 3.724e-5
0.221, 3.762e-5
0.222, 3.785e-5
0.223, 3.862e-5
0.224, 3.880e-5
0.225, 3.920e-5
0.226, 3.959e-5
0.227, 4.010e-5
0.228, 4.060e-5
0.229, 4.076e-5
0.230, 4.147e-5
0.231, 4.204e-5
0.232, 4.225e-5
0.233, 4.248e-5
0.234, 4.319e-5
0.235, 4.353e-5
0.236, 4.436e-5
0.237, 4.471e-5
0.238, 4.487e-5
0.239, 4.581e-5
0.240, 4.590e-5
0.241, 4.666e-5
0.242, 4.728e-5
0.243, 4.737e-5
0.244, 4.809e-5
0.245, 4.877e-5
0.246, 4.915e-5
0.247, 4.997e-5
0.248, 5.053e-5
0.249, 5.092e-5
0.250, 1.836e-5
0.249, -8.511e-6
0.248, -1.454e-5
0.247, -1.825e-5
0.246, -2.092e-5
0.245, -2.276e-5
0.244, -2.457e-5
0.243, -2.531e-5
0.242, -2.674e-5
0.241, -2.773e-5
0.240, -2.811e-5
0.239, -2.893e-5
0.238, -2.958e-5
0.237, -2.984e-5
0.236, -3.038e-5
0.235, -3.097e-5
0.234, -3.072e-5
0.233, -3.122e-5
0.232, -3.121e-5
0.231, -3.149e-5
0.230, -3.197e-5
0.229, -3.157e-5
0.228, -3.192e-5
0.227, -3.169e-5
0.226, -3.175e-5
0.225, -3.208e-5
0.224, -3.182e-5
0.223, -3.192e-5
0.222, -3.199e-5
0.221, -3.173e-5
0.220, -3.196e-5
0.219, -3.191e-5
0.218, -3.141e-5
0.217, -3.197e-5
0.216, -3.177e-5
0.215, -3.155e-5
0.214, -3.157e-5
0.213, -3.165e-5
0.212, -3.164e-5
0.211, -3.148e-5
0.210, -3.128e-5
0.209, -3.151e-5
0.208, -3.119e-5
0.207, -3.125e-5
0.206, -3.124e-5
0.205, -3.041e-5
0.204, -3.112e-5
0.203, -3.102e-5
0.202, -3.062e-5
0.201, -3.110e-5
0.200, -3.081e-5
0.199, -3.073e-5
0.198, -3.088e-5
0.197, -3.051e-5
0.196, -3.081e-5
0.195, -3.038e-5
0.194, -3.047e-5
0.193, -3.066e-5
0.192, -3.020e-5
0.191, -3.035e-5
0.190, -3.042e-5
0.189, -3.015e-5
0.188, -3.032e-5
0.187, -3.030e-5
0.186, -3.021e-5
0.185, -3.023e-5
0.184, -3.021e-5
0.183, -3.009e-5
0.182, -3.017e-5
0.181, -3.010e-5
0.180, -3.025e-5
0.179, -3.046e-5
0.178, -2.986e-5
0.177, -3.015e-5
0.176, -2.998e-5
0.175, -3.012e-5
0.174, -3.031e-5
0.173, -3.007e-5
0.172, -3.015e-5
0.171, -3.017e-5
0.170, -3.008e-5
0.169, -3.037e-5
0.168, -3.013e-5
0.167, -2.995e-5
0.166, -3.032e-5
0.165, -3.018e-5
0.164, -3.024e-5
0.163, -3.031e-5
0.162, -3.039e-5
0.161, -3.065e-5
0.160, -3.039e-5
0.159, -3.028e-5
0.158, -3.053e-5
0.157, -3.051e-5
0.156, -3.051e-5
0.155, -3.088e-5
0.154, -3.082e-5
0.153, -3.103e-5
0.152, -3.064e-5
0.151, -3.081e-5
0.150, -8.152e-6
0.151, 7.379e-6
0.152, 1.038e-5
0.153, 1.235e-5
0.154, 1.384e-5
0.155, 1.496e-5
0.156, 1.611e-5
0.157, 1.659e-5
0.158, 1.737e-5
0.159, 1.829e-5
0.160, 1.875e-5
0.161, 1.943e-5
0.162, 1.975e-5
0.163, 2.039e-5
0.164, 2.087e-5
0.165, 2.120e-5
0.166, 2.114e-5
0.167, 2.202e-5
0.168, 2.232e-5
0.169, 2.250e-5
0.170, 2.305e-5
0.171, 2.334e-5
0.172, 2.370e-5
0.173, 2.400e-5
0.174, 2.410e-5
0.175, 2.454e-5
0.176, 2.458e-5
0.177, 2.502e-5
0.178, 2.529e-5
0.179, 2.570e-5
0.180, 2.577e-5
0.181, 2.613e-5
0.182, 2.613e-5
0.183, 2.691e-5
0.184, 2.667e-5
0.185, 2.705e-5
0.186, 2.730e-5
0.187, 2.771e-5
0.188, 2.777e-5
0.189, 2.791e-5
0.190, 2.811e-5
0.191, 2.876e-5
0.192, 2.847e-5
0.193, 2.899e-5
0.194, 2.923e-5
0.195, 2.951e-5
0.196, 2.980e-5
0.197, 3.014e-5
0.198, 3.014e-5
0.199, 3.068e-5
0.200, 3.073e-5
0.201, 3.116e-5
0.202, 3.129e-5
0.203, 3.160e-5
0.204, 3.181e-5
0.205, 3.161e-5
0.206, 3.207e-5
0.207, 3.289e-5
0.208, 3.286e-5
0.209, 3.327e-5
0.210, 3.371e-5
0.211, 3.398e-5
0.212, 3.403e-5
0.213, 3.485e-5
0.214, 3.466e-5
0.215, 3.547e-5
0.216, 3.552e-5
0.217, 3.558e-5
0.218, 3.620e-5
0.219, 3.660e-5
0.220, 3.700e-5
0.221, 3.722e-5
0.222, 3.743e-5
0.223, 3.824e-5
0.224, 3.842e-5
0.225, 3.884e-5
0.226, 3.926e-5
0.227, 3.964e-5
0.228, 3.997e-5
0.229, 4.052e-5
0.230, 4.105e-5
0.231, 4.169e-5
0.232, 4.186e-5
0.233, 4.218e-5
0.234, 4.273e-5
0.235, 4.307e-5
0.236, 4.377e-5
0.237, 4.412e-5
0.238, 4.467e-5
0.239, 4.542e-5
0.240, 4.533e-5
0.241, 4.606e-5
0.242, 4.674e-5
0.243, 4.694e-5
0.244, 4.786e-5
0.245, 4.828e-5
0.246, 4.847e-5
0.247, 4.953e-5
0.248, 5.003e-5
0.249, 5.066e-5
0.250, 1.768e-5
0.249, -8.913e-6
0.248, -1.492e-5
0.247, -1.852e-5
0.246, -2.135e-5
0.245, -2.325e-5
0.244, -2.465e-5
0.243, -2.595e-5
0.242, -2.690e-5
0.241, -2.814e-5
0.240, -2.869e-5
0.239, -2.925e-5
0.238, -2.971e-5
0.237, -3.047e-5
0.236, -3.049e-5
0.235, -3.087e-5
0.234, -3.102e-5
0.233, -3.148e-5
0.232, -3.149e-5
0.231, -3.190e-5
0.230, -3.195e-5
0.229, -3.189e-5
0.228, -3.201e-5
0.227, -3.206e-5
0.226, -3.180e-5
0.225, -3.228e-5
0.224, -3.232e-5
0.223, -3.207e-5
0.222, -3.227e-5
0.221, -3.206e-5
0.220, -3.197e-5
0.219, -3.217e-5
0.218, -3.162e-5
0.217, -3.207e-5
0.216, -3.171e-5
0.215, -3.182e-5
0.214, -3.199e-5
0.213, -3.174e-5
0.212, -3.156e-5
0.211, -3.177e-5
0.210, -3.150e-5
0.209, -3.155e-5
0.208, -3.138e-5
0.207, -3.148e-5
0.206, -3.148e-5
0.205, -3.052e-5
0.204, -3.131e-5
0.203, -3.103e-5
0.202, -3.092e-5
0.201, -3.122e-5
0.200, -3.084e-5
0.199, -3.083e-5
0.198, -3.100e-5
0.197, -3.082e-5
0.196, -3.073e-5
0.195, -3.071e-5
0.194, -3.075e-5
0.193, -3.074e-5
0.192, -3.036e-5
0.191, -3.049e-5
0.190, -3.063e-5
0.189, -3.032e-5
0.188, -3.048e-5
0.187, -3.053e-5
0.186, -3.039e-5
0.185, -3.046e-5
0.184, -3.029e-5
0.183, -3.012e-5
0.182, -3.056e-5
0.181, -3.023e-5
0.180, -3.043e-5
0.179, -3.039e-5
0.178, -3.017e-5
0.177, -3.034e-5
0.176, -3.020e-5
0.175, -3.013e-5
0.174, -3.027e-5
0.173, -3.032e-5
0.172, -3.036e-5
0.171, -3.023e-5
0.170, -3.023e-5
0.169, -3.069e-5
0.168, -3.031e-5
0.167, -3.005e-5
0.166, -3.046e-5
0.165, -3.040e-5
0.164, -3.042e-5
0.163, -3.057e-5
0.162, -3.047e-5
0.161, -3.058e-5
0.160, -3.071e-5
0.159, -3.060e-5
0.158, -3.086e-5
0.157, -3.053e-5
0.156, -3.089e-5
0.155, -3.085e-5
0.154, -3.109e-5
0.153, -3.105e-5
0.152, -3.099e-5
0.151, -3.098e-5
0.150, -8.320e-6
0.151, 7.449e-6
0.152, 1.015e-5
0.153, 1.229e-5
0.154, 1.378e-5
0.155, 1.482e-5
0.156, 1.577e-5
0.157, 1.673e-5
0.158, 1.723e-5
0.159, 1.823e-5
0.160, 1.869e-5
0.161, 1.925e-5
0.162, 1.978e-5
0.163, 2.019e-5
0.164, 2.067e-5
0.165, 2.113e-5
0.166, 2.116e-5
0.167, 2.199e-5
0.168, 2.218e-5
0.169, 2.247e-5
0.170, 2.289e-5
0.171, 2.325e-5
0.172, 2.355e-5
0.173, 2.385e-5
0.174, 2.397e-5
0.175, 2.457e-5
0.176, 2.468e-5
0.177, 2.474e-5
0.178, 2.522e-5
0.179, 2.565e-5
0.180, 2.563e-5
0.181, 2.598e-5
0.182, 2.615e-5
0.183, 2.649e-5
0.184, 2.676e-5
0.185, 2.701e-5
0.186, 2.723e-5
0.187, 2.735e-5
0.188, 2.768e-5
0.189, 2.780e-5
0.190, 2.806e-5
0.191, 2.865e-5
0.192, 2.833e-5
0.193, 2.894e-5
0.194, 2.914e-5
0.195, 2.941e-5
0.196, 2.971e-5
0.197, 3.005e-5
0.198, 3.006e-5
0.199, 3.063e-5
0.200, 3.064e-5
0.201, 3.085e-5
0.202, 3.135e-5
0.203, 3.160e-5
0.204, 3.163e-5
0.205, 3.140e-5
0.206, 3.222e-5
0.207, 3.270e-5
0.208, 3.271e-5
0.209, 3.320e-5
0.210, 3.350e-5
0.211, 3.374e-5
0.212, 3.422e-5
0.213, 3.441e-5
0.214, 3.462e-5
0.215, 3.521e-5
0.216, 3.533e-5
0.217, 3.573e-5
0.218, 3.598e-5
0.219, 3.636e-5
0.220, 3.692e-5
0.221, 3.714e-5
0.222, 3.729e-5
0.223, 3.812e-5
0.224, 3.817e-5
0.225, 3.864e-5
0.226, 3.904e-5
0.227, 3.946e-5
0.228, 4.006e-5
0.229, 4.023e-5
0.230, 4.085e-5
0.231, 4.140e-5
0.232, 4.154e-5
0.233, 4.217e-5
0.234, 4.249e-5
0.235, 4.309e-5
0.236, 4.356e-5
0.237, 4.397e-5
0.238, 4.438e-5
0.239, 4.520e-5
0.240, 4.533e-5
0.241, 4.600e-5
0.242, 4.660e-5
0.243, 4.656e-5
0.244, 4.759e-5
0.245, 4.811e-5
0.246, 4.842e-5
0.247, 4.942e-5
0.248, 4.981e-5
0.249, 5.056e-5
0.250, 1.761e-5
0.249, -9.298e-6
0.248, -1.529e-5
0.247, -1.872e-5
0.246, -2.147e-5
0.245, -2.326e-5
0.244, -2.476e-5
0.243, -2.614e-5
0.242, -2.696e-5
0.241, -2.851e-5
0.240, -2.861e-5
0.239, -2.934e-5
0.238, -3.006e-5
0.237, -3.027e-5
0.236, -3.074e-5
0.235, -3.101e-5
0.234, -3.138e-5
0.233, -3.149e-5
0.232, -3.152e-5
0.231, -3.189e-5
0.230, -3.219e-5
0.229, -3.205e-5
0.228, -3.205e-5
0.227, -3.225e-5
0.226, -3.192e-5
0.225, -3.244e-5
0.224, -3.218e-5
0.223, -3.216e-5
0.222, -3.234e-5
0.221, -3.214e-5
0.220, -3.219e-5
0.219, -3.225e-5
0.218, -3.189e-5
0.217, -3.214e-5
0.216, -3.186e-5
0.215, -3.179e-5
0.214, -3.192e-5
0.213, -3.183e-5
0.212, -3.181e-5
0.211, -3.179e-5
0.210, -3.149e-5
0.209, -3.186e-5
0.208, -3.155e-5
0.207, -3.128e-5
0.206, -3.144e-5
0.205, -3.066e-5
0.204, -3.126e-5
0.203, -3.112e-5
0.202, -3.109e-5
0.201, -3.119e-5
0.200, -3.112e-5
0.199, -3.090e-5
0.198, -3.111e-5
0.197, -3.088e-5
0.196, -3.079e-5
0.195, -3.072e-5
0.194, -3.070e-5
0.193, -3.082e-5
0.192, -3.054e-5
0.191, -3.042e-5
0.190, -3.063e-5
0.189, -3.066e-5
0.188, -3.033e-5
0.187, -3.051e-5
0.186, -3.050e-5
0.185, -3.049e-5
0.184, -3.039e-5
0.183, -3.046e-5
0.182, -3.043e-5
0.181, -3.041e-5
0.180, -3.036e-5
0.179, -3.064e-5
0.178, -3.028e-5
0.177, -3.043e-5
0.176, -3.033e-5
0.175, -3.026e-5
0.174, -3.033e-5
0.173, -3.032e-5
0.172, -3.059e-5
0.171, -3.035e-5
0.170, -3.031e-5
0.169, -3.059e-5
0.168, -3.037e-5
0.167, -3.028e-5
0.166, -3.055e-5
0.165, -3.040e-5
0.164, -3.048e-5
0.163, -3.053e-5
0.162, -3.067e-5
0.161, -3.079e-5
0.160, -3.073e-5
0.159, -3.070e-5
0.158, -3.081e-5
0.157, -3.080e-5
0.156, -3.089e-5
0.155, -3.098e-5
0.154, -3.104e-5
0.153, -3.119e-5
0.152, -3.119e-5
0.151, -3.109e-5
0.150, -8.398e-6
0.151, 7.295e-6
0.152, 1.005e-5
0.153, 1.230e-5
0.154, 1.371e-5
0.155, 1.478e-5
0.156, 1.578e-5
0.157, 1.676e-5
0.158, 1.721e-5
0.159, 1.808e-5
0.160, 1.869e-5
0.161, 1.929e-5
0.162, 1.976e-5
0.163, 2.023e-5
0.164, 2.058e-5
0.165, 2.115e-5
0.166, 2.110e-5
0.167, 2.204e-5
0.168, 2.210e-5
0.169, 2.252e-5
0.170, 2.278e-5
0.171, 2.319e-5
0.172, 2.334e-5
0.173, 2.392e-5
0.174, 2.388e-5
0.175, 2.440e-5
0.176, 2.454e-5
0.177, 2.485e-5
0.178, 2.510e-5
0.179, 2.565e-5
0.180, 2.573e-5
0.181, 2.600e-5
0.182, 2.613e-5
0.183, 2.646e-5
0.184, 2.658e-5
0.185, 2.686e-5
0.186, 2.729e-5
0.187, 2.721e-5
0.188, 2.773e-5
0.189, 2.799e-5
0.190, 2.809e-5
0.191, 2.865e-5
0.192, 2.824e-5
0.193, 2.879e-5
0.194, 2.909e-5
0.195, 2.934e-5
0.196, 2.947e-5
0.197, 3.002e-5
0.198, 3.006e-5
0.199, 3.051e-5
0.200, 3.066e-5
0.201, 3.091e-5
0.202, 3.103e-5
0.203, 3.159e-5
0.204, 3.166e-5
0.205, 3.121e-5
0.206, 3.223e-5
0.207, 3.259e-5
0.208, 3.271e-5
0.209, 3.302e-5
0.210, 3.338e-5
0.211, 3.396e-5
0.212, 3.397e-5
0.213, 3.429e-5
0.214, 3.443e-5
0.215, 3.510e-5
0.216, 3.540e-5
0.217, 3.565e-5
0.218, 3.593e-5
0.219, 3.623e-5
0.220, 3.650e-5
0.221, 3.728e-5
0.222, 3.732e-5
0.223, 3.806e-5
0.224, 3.806e-5
0.225, 3.876e-5
0.226, 3.897e-5
0.227, 3.930e-5
0.228, 3.972e-5
0.229, 4.047e-5
0.230, 4.064e-5
0.231, 4.132e-5
0.232, 4.161e-5
0.233, 4.185e-5
0.234, 4.249e-5
0.235, 4.305e-5
0.236, 4.328e-5
0.237, 4.395e-5
0.238, 4.413e-5
0.239, 4.506e-5
0.240, 4.528e-5
0.241, 4.589e-5
0.242, 4.657e-5
0.243, 4.677e-5
0.244, 4.715e-5
0.245, 4.791e-5
0.246, 4.853e-5
0.247, 4.918e-5
0.248, 4.971e-5
0.249, 5.032e-5
0.250, 1.726e-5
0.249, -9.291e-6
0.248, -1.512e-5
0.247, -1.889e-5
0.246, -2.163e-5
0.245, -2.342e-5
0.244, -2.515e-5
0.243, -2.593e-5
0.242, -2.740e-5
0.241, -2.820e-5
0.240, -2.883e-5
0.239, -2.930e-5
0.238, -3.013e-5
0.237, -3.042e-5
0.236, -3.074e-5
0.235, -3.120e-5
0.234, -3.116e-5
0.233, -3.165e-5
0.232, -3.178e-5
0.231, -3.185e-5
0.230, -3.218e-5
0.229, -3.191e-5
0.228, -3.217e-5
0.227, -3.226e-5
0.226, -3.220e-5
0.225, -3.227e-5
0.224, -3.237e-5
0.223, -3.223e-5
0.222, -3.226e-5
0.221, -3.224e-5
0.220, -3.210e-5
0.219, -3.230e-5
0.218, -3.182e-5
0.217, -3.214e-5
0.216, -3.206e-5
0.215, -3.192e-5
0.214, -3.198e-5
0.213, -3.194e-5
0.212, -3.175e-5
0.211, -3.175e-5
0.210, -3.169e-5
0.209, -3.169e-5
0.208, -3.159e-5
0.207, -3.145e-5
0.206, -3.147e-5
0.205, -3.082e-5
0.204, -3.111e-5
0.203, -3.126e-5
0.202, -3.115e-5
0.201, -3.119e-5
0.200, -3.106e-5
0.199, -3.097e-5
0.198, -3.104e-5
0.197, -3.087e-5
0.196, -3.095e-5
0.195, -3.087e-5
0.194, -3.056e-5
0.193, -3.097e-5
0.192, -3.035e-5
0.191, -3.063e-5
0.190, -3.076e-5
0.189, -3.048e-5
0.188, -3.062e-5
0.187, -3.057e-5
0.186, -3.055e-5
0.185, -3.059e-5
0.184, -3.036e-5
0.183, -3.033e-5
0.182, -3.048e-5
0.181, -3.044e-5
0.180, -3.040e-5
0.179, -3.046e-5
0.178, -3.035e-5
0.177, -3.051e-5
0.176, -3.046e-5
0.175, -3.026e-5
0.174, -3.044e-5
0.173, -3.034e-5
0.172, -3.045e-5
0.171, -3.055e-5
0.170, -3.033e-5
0.169, -3.060e-5
0.168, -3.043e-5
0.167, -3.023e-5
0.166, -3.059e-5
0.165, -3.058e-5
0.164, -3.061e-5
0.163, -3.060e-5
0.162, -3.074e-5
0.161, -3.084e-5
0.160, -3.061e-5
0.159, -3.079e-5
0.158, -3.099e-5
0.157, -3.087e-5
0.156, -3.089e-5
0.155, -3.108e-5
0.154, -3.119e-5
0.153, -3.136e-5
0.152, -3.122e-5
0.151, -3.103e-5
0.150, -8.464e-6
0.151, 7.258e-6
0.152, 1.014e-5
0.153, 1.213e-5
0.154, 1.367e-5
0.155, 1.484e-5
0.156, 1.570e-5
0.157, 1.663e-5
0.158, 1.727e-5
0.159, 1.815e-5
0.160, 1.867e-5
0.161, 1.910e-5
0.162, 1.965e-5
0.163, 2.023e-5
0.164, 2.068e-5
0.165, 2.109e-5
0.166, 2.106e-5
0.167, 2.199e-5
0.168, 2.210e-5
0.169, 2.244e-5
0.170, 2.269e-5
0.171, 2.323e-5
0.172, 2.339e-5
0.173, 2.378e-5
0.174, 2.396e-5
0.175, 2.443e-5
0.176, 2.457e-5
0.177, 2.486e-5
0.178, 2.519e-5
0.179, 2.561e-5
0.180, 2.562e-5
0.181, 2.579e-5
0.182, 2.609e-5
0.183, 2.640e-5
0.184, 2.662e-5
0.185, 2.704e-5
0.186, 2.709e-5
0.187, 2.744e-5
0.188, 2.747e-5
0.189, 2.778e-5
0.190, 2.798e-5
0.191, 2.849e-5
0.192, 2.842e-5
0.193, 2.878e-5
0.194, 2.903e-5
0.195, 2.935e-5
0.196, 2.952e-5
0.197, 3.001e-5
0.198, 2.990e-5
0.199, 3.051e-5
0.200, 3.062e-5
0.201, 3.081e-5
0.202, 3.119e-5
0.203, 3.142e-5
0.204, 3.164e-5
0.205, 3.138e-5
0.206, 3.197e-5
0.207, 3.246e-5
0.208, 3.274e-5
0.209, 3.303e-5
0.210, 3.351e-5
0.211, 3.371e-5
0.212, 3.381e-5
0.213, 3.452e-5
0.214, 3.452e-5
0.215, 3.494e-5
0.216, 3.526e-5
0.217, 3.554e-5
0.218, 3.587e-5
0.219, 3.622e-5
0.220, 3.664e-5
0.221, 3.701e-5
0.222, 3.730e-5
0.223, 3.775e-5
0.224, 3.816e-5
0.225, 3.867e-5
0.226, 3.903e-5
0.227, 3.933e-5
0.228, 3.980e-5
0.229, 4.015e-5
0.230, 4.061e-5
0.231, 4.131e-5
0.232, 4.138e-5
0.233, 4.195e-5
0.234, 4.231e-5
0.235, 4.295e-5
0.236, 4.321e-5
0.237, 4.389e-5
0.238, 4.425e-5
0.239, 4.485e-5
0.240, 4.523e-5
0.241, 4.576e-5
0.242, 4.644e-5
0.243, 4.665e-5
0.244, 4.744e-5
0.245, 4.786e-5
0.246, 4.829e-5
0.247, 4.920e-5
0.248, 4.952e-5
0.249, 5.021e-5
0.250, 1.744e-5
0.249, -9.485e-6
0.248, -1.525e-5
0.247, -1.888e-5
0.246, -2.178e-5
0.245, -2.354e-5
0.244, -2.472e-5
0.243, -2.613e-5
0.242, -2.726e-5
0.241, -2.843e-5
0.240, -2.880e-5
0.239, -2.934e-5
0.238, -3.007e-5
0.237, -3.057e-5
0.236, -3.077e-5
0.235, -3.115e-5
0.234, -3.132e-5
0.233, -3.164e-5
0.232, -3.179e-5
0.231, -3.197e-5
0.230, -3.211e-5
0.229, -3.199e-5
0.228, -3.224e-5
0.227, -3.234e-5
0.226, -3.210e-5
0.225, -3.231e-5
0.224, -3.246e-5
0.223, -3.229e-5
0.222, -3.222e-5
0.221, -3.221e-5
0.220, -3.227e-5
0.219, -3.217e-5
0.218, -3.194e-5
0.217, -3.223e-5
0.216, -3.205e-5
0.215, -3.185e-5
0.214, -3.198e-5
0.213, -3.190e-5
0.212, -3.180e-5
0.211, -3.185e-5
0.210, -3.174e-5
0.209, -3.194e-5
0.208, -3.151e-5
0.207, -3.155e-5
0.206, -3.141e-5
0.205, -3.076e-5
0.204, -3.134e-5
0.203, -3.118e-5
0.202, -3.104e-5
0.201, -3.141e-5
0.200, -3.122e-5
0.199, -3.105e-5
0.198, -3.105e-5
0.197, -3.088e-5
0.196, -3.088e-5
0.195, -3.095e-5
0.194, -3.077e-5
0.193, -3.082e-5
0.192, -3.041e-5
0.191, -3.062e-5
0.190, -3.071e-5
0.189, -3.052e-5
0.188, -3.057e-5
0.187, -3.054e-5
0.186, -3.060e-5
0.185, -3.060e-5
0.184, -3.037e-5
0.183, -3.031e-5
0.182, -3.048e-5
0.181, -3.057e-5
0.180, -3.045e-5
0.179, -3.066e-5
0.178, -3.037e-5
0.177, -3.059e-5
0.176, -3.027e-5
0.175, -3.035e-5
0.174, -3.057e-5
0.173, -3.036e-5
0.172, -3.045e-5
0.171, -3.048e-5
0.170, -3.038e-5
0.169, -3.054e-5
0.168, -3.062e-5
0.167, -3.030e-5
0.166, -3.063e-5
0.165, -3.054e-5
0.164, -3.054e-5
0.163, -3.064e-5
0.162, -3.073e-5
0.161, -3.087e-5
0.160, -3.081e-5
0.159, -3.078e-5
0.158, -3.098e-5
0.157, -3.089e-5
0.156, -3.102e-5
0.155, -3.105e-5
0.154, -3.123e-5
0.153, -3.140e-5
0.152, -3.130e-5
0.151, -3.129e-5
0.150, -8.413e-6
0.151, 7.308e-6
0.152, 1.008e-5
0.153, 1.216e-5
0.154, 1.375e-5
0.155, 1.475e-5
0.156, 1.575e-5
0.157, 1.657e-5
0.158, 1.730e-5
0.159, 1.804e-5
0.160, 1.862e-5
0.161, 1.912e-5
0.162, 1.961e-5
0.163, 2.030e-5
0.164, 2.062e-5
0.165, 2.104e-5
0.166, 2.116e-5
0.167, 2.177e-5
0.168, 2.210e-5
0.169, 2.244e-5
0.170, 2.280e-5
0.171, 2.317e-5
0.172, 2.347e-5
0.173, 2.390e-5
0.174, 2.379e-5
0.175, 2.439e-5
0.176, 2.447e-5
0.177, 2.479e-5
0.178, 2.512e-5
0.179, 2.546e-5
0.180, 2.569e-5
0.181, 2.597e-5
0.182, 2.598e-5
0.183, 2.650e-5
0.184, 2.653e-5
0.185, 2.689e-5
0.186, 2.719e-5
0.187, 2.745e-5
0.188, 2.749e-5
0.189, 2.781e-5
0.190, 2.807e-5
0.191, 2.835e-5
0.192, 2.831e-5
0.193, 2.871e-5
0.194, 2.912e-5
0.195, 2.931e-5
0.196, 2.957e-5
0.197, 2.979e-5
0.198, 2.994e-5
0.199, 3.044e-5
0.200, 3.066e-5
0.201, 3.077e-5
0.202, 3.107e-5
0.203, 3.139e-5
0.204, 3.169e-5
0.205, 3.118e-5
0.206, 3.200e-5
0.207, 3.255e-5
0.208, 3.255e-5
0.209, 3.308e-5
0.210, 3.332e-5
0.211, 3.369e-5
0.212, 3.408e-5
0.213, 3.418e-5
0.214, 3.453e-5
0.215, 3.508e-5
0.216, 3.507e-5
0.217, 3.547e-5
0.218, 3.578e-5
0.219, 3.629e-5
0.220, 3.659e-5
0.221, 3.711e-5
0.222, 3.719e-5
0.223, 3.794e-5
0.224, 3.806e-5
0.225, 3.849e-5
0.226, 3.885e-5
0.227, 3.922e-5
0.228, 3.981e-5
0.229, 4.023e-5
0.230, 4.063e-5
0.231, 4.107e-5
0.232, 4.138e-5
0.233, 4.190e-5
0.234, 4.219e-5
0.235, 4.288e-5
0.236, 4.326e-5
0.237, 4.395e-5
0.238, 4.409e-5
0.239, 4.487e-5
0.240, 4.518e-5
0.241, 4.565e-5
0.242, 4.635e-5
0.243, 4.673e-5
0.244, 4.733e-5
0.245, 4.789e-5
0.246, 4.825e-5
0.247, 4.918e-5
0.248, 4.927e-5
0.249, 5.037e-5
0.250, 1.714e-5
0.249, -9.193e-6
0.248, -1.526e-5
0.247, -1.907e-5
0.246, -2.150e-5
0.245, -2.368e-5
0.244, -2.503e-5
0.243, -2.618e-5
0.242, -2.738e-5
0.241, -2.824e-5
0.240, -2.884e-5
0.239, -2.949e-5
0.238, -3.004e-5
0.237, -3.042e-5
0.236, -3.098e-5
0.235, -3.105e-5
0.234, -3.135e-5
0.233, -3.162e-5
0.232, -3.176e-5
0.231, -3.203e-5
0.230, -3.214e-5
0.229, -3.211e-5
0.228, -3.217e-5
0.227, -3.220e-5
0.226, -3.222e-5
0.225, -3.253e-5
0.224, -3.235e-5
0.223, -3.236e-5
0.222, -3.246e-5
0.221, -3.215e-5
0.220, -3.224e-5
0.219, -3.230e-5
0.218, -3.189e-5
0.217, -3.214e-5
0.216, -3.208e-5
0.215, -3.191e-5
0.214, -3.211e-5
0.213, -3.193e-5
0.212, -3.172e-5
0.211, -3.183e-5
0.210, -3.177e-5
0.209, -3.175e-5
0.208, -3.159e-5
0.207, -3.140e-5
0.206, -3.154e-5
0.205, -3.073e-5
0.204, -3.118e-5
0.203, -3.137e-5
0.202, -3.112e-5
0.201, -3.126e-5
0.200, -3.110e-5
0.199, -3.103e-5
0.198, -3.109e-5
0.197, -3.101e-5
0.196, -3.102e-5
0.195, -3.088e-5
0.194, -3.074e-5
0.193, -3.088e-5
0.192, -3.066e-5
0.191, -3.056e-5
0.190, -3.068e-5
0.189, -3.045e-5
0.188, -3.064e-5
0.187, -3.070e-5
0.186, -3.038e-5
0.185, -3.064e-5
0.184, -3.045e-5
0.183, -3.037e-5
0.182, -3.064e-5
0.181, -3.047e-5
0.180, -3.040e-5
0.179, -3.061e-5
0.178, -3.048e-5
0.177, -3.052e-5
0.176, -3.017e-5
0.175, -3.045e-5
0.174, -3.051e-5
0.173, -3.062e-5
0.172, -3.045e-5
0.171, -3.037e-5
0.170, -3.036e-5
0.169, -3.060e-5
0.168, -3.063e-5
0.167, -3.030e-5
0.166, -3.062e-5
0.165, -3.058e-5
0.164, -3.075e-5
0.163, -3.064e-5
0.162, -3.074e-5
0.161, -3.084e-5
0.160, -3.087e-5
0.159, -3.084e-5
0.158, -3.085e-5
0.157, -3.106e-5
0.156, -3.099e-5
0.155, -3.109e-5
0.154, -3.119e-5
0.153, -3.137e-5
0.152, -3.121e-5
0.151, -3.126e-5
0.150, -8.440e-6
0.151, 7.198e-6
0.152, 1.018e-5
0.153, 1.221e-5
0.154, 1.358e-5
0.155, 1.470e-5
0.156, 1.581e-5
0.157, 1.664e-5
0.158, 1.726e-5
0.159, 1.797e-5
0.160, 1.861e-5
0.161, 1.923e-5
0.162, 1.958e-5
0.163, 2.022e-5
0.164, 2.057e-5
0.165, 2.106e-5
0.166, 2.117e-5
0.167, 2.189e-5
0.168, 2.210e-5
0.169, 2.246e-5
0.170, 2.284e-5
0.171, 2.309e-5
0.172, 2.347e-5
0.173, 2.379e-5
0.174, 2.394e-5
0.175, 2.433e-5
0.176, 2.451e-5
0.177, 2.488e-5
0.178, 2.495e-5
0.179, 2.568e-5
0.180, 2.568e-5
0.181, 2.589e-5
0.182, 2.596e-5
0.183, 2.638e-5
0.184, 2.651e-5
0.185, 2.680e-5
0.186, 2.712e-5
0.187, 2.729e-5
0.188, 2.761e-5
0.189, 2.785e-5
0.190, 2.811e-5
0.191, 2.836e-5
0.192, 2.808e-5
0.193, 2.880e-5
0.194, 2.909e-5
0.195, 2.938e-5
0.196, 2.953e-5
0.197, 2.985e-5
0.198, 2.992e-5
0.199, 3.042e-5
0.200, 3.061e-5
0.201, 3.064e-5
0.202, 3.112e-5
0.203, 3.145e-5
0.204, 3.143e-5
0.205, 3.154e-5
0.206, 3.181e-5
0.207, 3.255e-5
0.208, 3.255e-5
0.209, 3.309e-5
0.210, 3.327e-5
0.211, 3.367e-5
0.212, 3.402e-5
0.213, 3.426e-5
0.214, 3.442e-5
0.215, 3.501e-5
0.216, 3.523e-5
0.217, 3.545e-5
0.218, 3.583e-5
0.219, 3.639e-5
0.220, 3.658e-5
0.221, 3.693e-5
0.222, 3.722e-5
0.223, 3.783e-5
0.224, 3.796e-5
0.225, 3.841e-5
0.226, 3.898e-5
0.227, 3.930e-5
0.228, 3.954e-5
0.229, 4.017e-5
0.230, 4.067e-5
0.231, 4.101e-5
0.232, 4.152e-5
0.233, 4.187e-5
0.234, 4.216e-5
0.235, 4.285e-5
0.236, 4.327e-5
0.237, 4.390e-5
0.238, 4.406e-5
0.239, 4.475e-5
0.240, 4.505e-5
0.241, 4.580e-5
0.242, 4.616e-5
0.243, 4.667e-5
0.244, 4.732e-5
0.245, 4.771e-5
0.246, 4.825e-5
0.247, 4.902e-5
0.248, 4.943e-5
0.249, 5.022e-5
0.250, 1.699e-5
0.249, -9.388e-6
0.248, -1.532e-5
0.247, -1.908e-5
0.246, -2.165e-5
0.245, -2.366e-5
0.244, -2.494e-5
0.243, -2.620e-5
0.242, -2.731e-5
0.241, -2.822e-5
0.240, -2.892e-5
0.239, -2.949e-5
0.238, -3.015e-5
0.237, -3.055e-5
0.236, -3.067e-5
0.235, -3.120e-5
0.234, -3.126e-5
0.233, -3.175e-5
0.232, -3.178e-5
0.231, -3.190e-5
0.230, -3.210e-5
0.229, -3.244e-5
0.228, -3.210e-5
0.227, -3.228e-5
0.226, -3.222e-5
0.225, -3.244e-5
0.224, -3.217e-5
0.223, -3.224e-5
0.222, -3.247e-5
0.221, -3.220e-5
0.220, -3.226e-5
0.219, -3.218e-5
0.218, -3.199e-5
0.217, -3.225e-5
0.216, -3.192e-5
0.215, -3.197e-5
0.214, -3.211e-5
0.213, -3.189e-5
0.212, -3.176e-5
0.211, -3.192e-5
0.210, -3.168e-5
0.209, -3.180e-5
0.208, -3.163e-5
0.207, -3.153e-5
0.206, -3.144e-5
0.205, -3.093e-5
0.204, -3.129e-5
0.203, -3.114e-5
0.202, -3.121e-5
0.201, -3.126e-5
0.200, -3.125e-5
0.199, -3.105e-5
0.198, -3.104e-5
0.197, -3.100e-5
0.196, -3.103e-5
0.195, -3.090e-5
0.194, -3.090e-5
0.193, -3.075e-5
0.192, -3.048e-5
0.191, -3.061e-5
0.190, -3.061e-5
0.189, -3.071e-5
0.188, -3.054e-5
0.187, -3.060e-5
0.186, -3.060e-5
0.185, -3.067e-5
0.184, -3.038e-5
0.183, -3.049e-5
0.182, -3.057e-5
0.181, -3.045e-5
0.180, -3.061e-5
0.179, -3.057e-5
0.178, -3.047e-5
0.177, -3.043e-5
0.176, -3.043e-5
0.175, -3.035e-5
0.174, -3.049e-5
0.173, -3.060e-5
0.172, -3.054e-5
0.171, -3.055e-5
0.170, -3.044e-5
0.169, -3.063e-5
0.168, -3.050e-5
0.167, -3.043e-5
0.166, -3.059e-5
0.165, -3.065e-5
0.164, -3.071e-5
0.163, -3.065e-5
0.162, -3.073e-5
0.161, -3.078e-5
0.160, -3.084e-5
0.159, -3.091e-5
0.158, -3.103e-5
0.157, -3.093e-5
0.156, -3.115e-5
0.155, -3.105e-5
0.154, -3.124e-5
0.153, -3.125e-5
0.152, -3.135e-5
0.151, -3.114e-5
0.150, -8.515e-6
0.151, 7.135e-6
0.152, 1.020e-5
0.153, 1.215e-5
0.154, 1.360e-5
0.155, 1.464e-5
0.156, 1.578e-5
0.157, 1.665e-5
0.158, 1.716e-5
0.159, 1.805e-5
0.160, 1.857e-5
0.161, 1.930e-5
0.162, 1.973e-5
0.163, 2.022e-5
0.164, 2.057e-5
0.165, 2.105e-5
0.166, 2.110e-5
0.167, 2.175e-5
0.168, 2.215e-5
0.169, 2.246e-5
0.170, 2.272e-5
0.171, 2.305e-5
0.172, 2.349e-5
0.173, 2.377e-5
0.174, 2.396e-5
0.175, 2.433e-5
0.176, 2.451e-5
0.177, 2.474e-5
0.178, 2.515e-5
0.179, 2.551e-5
0.180, 2.564e-5
0.181, 2.588e-5
0.182, 2.613e-5
0.183, 2.645e-5
0.184, 2.647e-5
0.185, 2.679e-5
0.186, 2.718e-5
0.187, 2.732e-5
0.188, 2.748e-5
0.189, 2.776e-5
0.190, 2.783e-5
0.191, 2.847e-5
0.192, 2.818e-5
0.193, 2.886e-5
0.194, 2.900e-5
0.195, 2.929e-5
0.196, 2.953e-5
0.197, 2.983e-5
0.198, 2.998e-5
0.199, 3.044e-5
0.200, 3.058e-5
0.201, 3.081e-5
0.202, 3.111e-5
0.203, 3.136e-5
0.204, 3.149e-5
0.205, 3.129e-5
0.206, 3.189e-5
0.207, 3.254e-5
0.208, 3.262e-5
0.209, 3.301e-5
0.210, 3.322e-5
0.211, 3.365e-5
0.212, 3.399e-5
0.213, 3.425e-5
0.214, 3.449e-5
0.215, 3.485e-5
0.216, 3.508e-5
0.217, 3.546e-5
0.218, 3.574e-5
0.219, 3.630e-5
0.220, 3.663e-5
0.221, 3.691e-5
0.222, 3.717e-5
0.223, 3.773e-5
0.224, 3.808e-5
0.225, 3.830e-5
0.226, 3.880e-5
0.227, 3.932e-5
0.228, 3.960e-5
0.229, 4.002e-5
0.230, 4.079e-5
0.231, 4.109e-5
0.232, 4.148e-5
0.233, 4.186e-5
0.234, 4.220e-5
0.235, 4.274e-5
0.236, 4.319e-5
0.237, 4.384e-5
0.238, 4.410e-5
0.239, 4.473e-5
0.240, 4.497e-5
0.241, 4.585e-5
0.242, 4.613e-5
0.243, 4.652e-5
0.244, 4.710e-5
0.245, 4.780e-5
0.246, 4.837e-5
0.247, 4.878e-5
0.248, 4.946e-5
0.249, 5.007e-5
0.250, 1.737e-5
0.249, -9.381e-6
0.248, -1.559e-5
0.247, -1.894e-5
0.246, -2.167e-5
0.245, -2.353e-5
0.244, -2.508e-5
0.243, -2.619e-5
0.242, -2.740e-5
0.241, -2.831e-5
0.240, -2.879e-5
0.239, -2.948e-5
0.238, -3.022e-5
0.237, -3.058e-5
0.236, -3.073e-5
0.235, -3.126e-5
0.234, -3.139e-5
0.233, -3.162e-5
0.232, -3.165e-5
0.231, -3.223e-5
0.230, -3.225e-5
0.229, -3.219e-5
0.228, -3.212e-5
0.227, -3.229e-5
0.226, -3.218e-5
0.225, -3.240e-5
0.224, -3.248e-5
0.223, -3.221e-5
0.222, -3.234e-5
0.221, -3.214e-5
0.220, -3.236e-5
0.219, -3.222e-5
0.218, -3.207e-5
0.217, -3.203e-5
0.216, -3.210e-5
0.215, -3.196e-5
0.214, -3.205e-5
0.213, -3.197e-5
0.212, -3.183e-5
0.211, -3.185e-5
0.210, -3.164e-5
0.209, -3.185e-5
0.208, -3.158e-5
0.207, -3.168e-5
0.206, -3.141e-5
0.205, -3.085e-5
0.204, -3.125e-5
0.203, -3.130e-5
0.202, -3.121e-5
0.201, -3.125e-5
0.200, -3.113e-5
0.199, -3.096e-5
0.198, -3.106e-5
0.197, -3.097e-5
0.196, -3.099e-5
0.195, -3.090e-5
0.194, -3.076e-5
0.193, -3.098e-5
0.192, -3.036e-5
0.191, -3.066e-5
0.190, -3.066e-5
0.189, -3.074e-5
0.188, -3.065e-5
0.187, -3.052e-5
0.186, -3.046e-5
0.185, -3.054e-5
0.184, -3.064e-5
0.183, -3.049e-5
0.182, -3.049e-5
0.181, -3.049e-5
0.180, -3.062e-5
0.179, -3.074e-5
0.178, -3.042e-5
0.177, -3.038e-5
0.176, -3.044e-5
0.175, -3.057e-5
0.174, -3.049e-5
0.173, -3.049e-5
0.172, -3.050e-5
0.171, -3.055e-5
0.170, -3.041e-5
0.169, -3.064e-5
0.168, -3.050e-5
0.167, -3.049e-5
0.166, -3.067e-5
0.165, -3.064e-5
0.164, -3.063e-5
0.163, -3.062e-5
0.162, -3.072e-5
0.161, -3.087e-5
0.160, -3.080e-5
0.159, -3.105e-5
0.158, -3.098e-5
0.157, -3.105e-5
0.156, -3.113e-5
0.155, -3.108e-5
0.154, -3.131e-5
0.153, -3.144e-5
0.152, -3.136e-5
0.151, -3.125e-5
0.150, -8.457e-6
0.151, 7.271e-6
0.152, 1.009e-5
0.153, 1.219e-5
0.154, 1.354e-5
0.155, 1.485e-5
0.156, 1.570e-5
0.157, 1.650e-5
0.158, 1.727e-5
0.159, 1.808e-5
0.160, 1.864e-5
0.161, 1.933e-5
0.162, 1.956e-5
0.163, 2.015e-5
0.164, 2.059e-5
0.165, 2.116e-5
0.166, 2.113e-5
0.167, 2.181e-5
0.168, 2.195e-5
0.169, 2.252e-5
0.170, 2.266e-5
0.171, 2.315e-5
0.172, 2.352e-5
0.173, 2.380e-5
0.174, 2.389e-5
0.175, 2.436e-5
0.176, 2.436e-5
0.177, 2.485e-5
0.178, 2.499e-5
0.179, 2.567e-5
0.180, 2.549e-5
0.181, 2.583e-5
0.182, 2.600e-5
0.183, 2.649e-5
0.184, 2.647e-5
0.185, 2.687e-5
0.186, 2.701e-5
0.187, 2.743e-5
0.188, 2.762e-5
0.189, 2.765e-5
0.190, 2.803e-5
0.191, 2.831e-5
0.192, 2.828e-5
0.193, 2.878e-5
0.194, 2.876e-5
0.195, 2.940e-5
0.196, 2.951e-5
0.197, 2.990e-5
0.198, 2.997e-5
0.199, 3.036e-5
0.200, 3.042e-5
0.201, 3.090e-5
0.202, 3.107e-5
0.203, 3.134e-5
0.204, 3.161e-5
0.205, 3.128e-5
0.206, 3.198e-5
0.207, 3.246e-5
0.208, 3.259e-5
0.209, 3.300e-5
0.210, 3.305e-5
0.211, 3.386e-5
0.212, 3.400e-5
0.213, 3.420e-5
0.214, 3.444e-5
0.215, 3.487e-5
0.216, 3.516e-5
0.217, 3.538e-5
0.218, 3.575e-5
0.219, 3.622e-5
0.220, 3.659e-5
0.221, 3.684e-5
0.222, 3.719e-5
0.223, 3.770e-5
0.224, 3.804e-5
0.225, 3.859e-5
0.226, 3.869e-5
0.227, 3.919e-5
0.228, 3.953e-5
0.229, 4.014e-5
0.230, 4.062e-5
0.231, 4.095e-5
0.232, 4.134e-5
0.233, 4.166e-5
0.234, 4.233e-5
0.235, 4.273e-5
0.236, 4.338e-5
0.237, 4.359e-5
0.238, 4.416e-5
0.239, 4.482e-5
0.240, 4.484e-5
0.241, 4.571e-5
0.242, 4.610e-5
0.243, 4.630e-5
0.244, 4.718e-5
0.245, 4.774e-5
0.246, 4.822e-5
0.247, 4.907e-5
0.248, 4.964e-5
0.249, 5.014e-5
0.250, 1.696e-5
0.249, -9.440e-6
0.248, -1.531e-5
0.247, -1.912e-5
0.246, -2.190e-5
0.245, -2.348e-5
0.244, -2.517e-5
0.243, -2.610e-5
0.242, -2.739e-5
0.241, -2.841e-5
0.240, -2.887e-5
0.239, -2.952e-5
0.238, -3.006e-5
0.237, -3.059e-5
0.236, -3.079e-5
0.235, -3.122e-5
0.234, -3.128e-5
0.233, -3.163e-5
0.232, -3.181e-5
0.231, -3.194e-5
0.230, -3.221e-5
0.229, -3.226e-5
0.228, -3.216e-5
0.227, -3.228e-5
0.226, -3.219e-5
0.225, -3.259e-5
0.224, -3.218e-5
0.223, -3.226e-5
0.222, -3.236e-5
0.221, -3.246e-5
0.220, -3.203e-5
0.219, -3.238e-5
0.218, -3.206e-5
0.217, -3.213e-5
0.216, -3.208e-5
0.215, -3.183e-5
0.214, -3.213e-5
0.213, -3.193e-5
0.212, -3.183e-5
0.211, -3.198e-5
0.210, -3.165e-5
0.209, -3.188e-5
0.208, -3.149e-5
0.207, -3.151e-5
0.206, -3.151e-5
0.205, -3.088e-5
0.204, -3.129e-5
0.203, -3.120e-5
0.202, -3.123e-5
0.201, -3.112e-5
0.200, -3.105e-5
0.199, -3.121e-5
0.198, -3.105e-5
0.197, -3.117e-5
0.196, -3.088e-5
0.195, -3.086e-5
0.194, -3.088e-5
0.193, -3.088e-5
0.192, -3.045e-5
0.191, -3.063e-5
0.190, -3.074e-5
0.189, -3.069e-5
0.188, -3.038e-5
0.187, -3.062e-5
0.186, -3.076e-5
0.185, -3.054e-5
0.184, -3.050e-5
0.183, -3.037e-5
0.182, -3.067e-5
0.181, -3.052e-5
0.180, -3.047e-5
0.179, -3.059e-5
0.178, -3.055e-5
0.177, -3.054e-5
0.176, -3.026e-5
0.175, -3.048e-5
0.174, -3.061e-5
0.173, -3.051e-5
0.172, -3.050e-5
0.171, -3.055e-5
0.170, -3.041e-5
0.169, -3.052e-5
0.168, -3.057e-5
0.167, -3.054e-5
0.166, -3.072e-5
0.165, -3.063e-5
0.164, -3.060e-5
0.163, -3.070e-5
0.162, -3.086e-5
0.161, -3.084e-5
0.160, -3.093e-5
0.159, -3.091e-5
0.158, -3.093e-5
0.157, -3.106e-5
0.156, -3.097e-5
0.155, -3.127e-5
0.154, -3.126e-5
0.153, -3.135e-5
0.152, -3.136e-5
0.151, -3.133e-5
